time(sec),hr(heart rate),ppg
0.033333,60,0.20791
0.066667,60,0.40674
0.1,60,0.58779
0.13333,60,0.74314
0.16667,60,0.86603
0.2,60,0.95106
0.23333,60,0.99452
0.26667,60,0.99452
0.3,60,0.95106
0.33333,60,0.86603
0.36667,60,0.74315
0.4,60,0.58779
0.43333,60,0.40674
0.46667,60,0.20791
0.5,60,6.5359e-07
0.53333,60,-0.20791
0.56667,60,-0.40674
0.6,60,-0.58778
0.63333,60,-0.74314
0.66667,60,-0.86602
0.7,60,-0.95106
0.73333,60,-0.99452
0.76667,60,-0.99452
0.8,60,-0.95106
0.83333,60,-0.86603
0.86667,60,-0.74315
0.9,60,-0.58779
0.93333,60,-0.40674
0.96667,60,-0.20791
1,60,-1.3072e-06
1.0333,60,0.20791
1.0667,60,0.40674
1.1,60,0.58778
1.1333,60,0.74314
1.1667,60,0.86602
1.2,60,0.95106
1.2333,60,0.99452
1.2667,60,0.99452
1.3,60,0.95106
1.3333,60,0.86603
1.3667,60,0.74315
1.4,60,0.58779
1.4333,60,0.40674
1.4667,60,0.20791
1.5,60,1.9608e-06
1.5333,60,-0.20791
1.5667,60,-0.40673
1.6,60,-0.58778
1.6333,60,-0.74314
1.6667,60,-0.86602
1.7,60,-0.95106
1.7333,60,-0.99452
1.7667,60,-0.99452
1.8,60,-0.95106
1.8333,60,-0.86603
1.8667,60,-0.74315
1.9,60,-0.58779
1.9333,60,-0.40674
1.9667,60,-0.20791
2,60,-2.6144e-06
2.0333,60,0.20791
2.0667,60,0.40673
2.1,60,0.58778
2.1333,60,0.74314
2.1667,60,0.86602
2.2,60,0.95106
2.2333,60,0.99452
2.2667,60,0.99452
2.3,60,0.95106
2.3333,60,0.86603
2.3667,60,0.74315
2.4,60,0.58779
2.4333,60,0.40674
2.4667,60,0.20791
2.5,60,3.2679e-06
2.5333,60,-0.20791
2.5667,60,-0.40673
2.6,60,-0.58778
2.6333,60,-0.74314
2.6667,60,-0.86602
2.7,60,-0.95106
2.7333,60,-0.99452
2.7667,60,-0.99452
2.8,60,-0.95106
2.8333,60,-0.86603
2.8667,60,-0.74315
2.9,60,-0.58779
2.9333,60,-0.40674
2.9667,60,-0.20792
3,60,-3.9215e-06
3.0333,60,0.20791
3.0667,60,0.40673
3.1,60,0.58778
3.1333,60,0.74314
3.1667,60,0.86602
3.2,60,0.95106
3.2333,60,0.99452
3.2667,60,0.99452
3.3,60,0.95106
3.3333,60,0.86603
3.3667,60,0.74315
3.4,60,0.58779
3.4333,60,0.40674
3.4667,60,0.20792
3.5,60,4.5751e-06
3.5333,60,-0.20791
3.5667,60,-0.40673
3.6,60,-0.58778
3.6333,60,-0.74314
3.6667,60,-0.86602
3.7,60,-0.95106
3.7333,60,-0.99452
3.7667,60,-0.99452
3.8,60,-0.95106
3.8333,60,-0.86603
3.8667,60,-0.74315
3.9,60,-0.58779
3.9333,60,-0.40674
3.9667,60,-0.20792
4,60,-5.2287e-06
4.0333,60,0.20791
4.0667,60,0.40673
4.1,60,0.58778
4.1333,60,0.74314
4.1667,60,0.86602
4.2,60,0.95105
4.2333,60,0.99452
4.2667,60,0.99452
4.3,60,0.95106
4.3333,60,0.86603
4.3667,60,0.74315
4.4,60,0.58779
4.4333,60,0.40674
4.4667,60,0.20792
4.5,60,5.8823e-06
4.5333,60,-0.20791
4.5667,60,-0.40673
4.6,60,-0.58778
4.6333,60,-0.74314
4.6667,60,-0.86602
4.7,60,-0.95105
4.7333,60,-0.99452
4.7667,60,-0.99452
4.8,60,-0.95106
4.8333,60,-0.86603
4.8667,60,-0.74315
4.9,60,-0.58779
4.9333,60,-0.40674
4.9667,60,-0.20792
5,60,-6.5359e-06
5.0333,60,0.20791
5.0667,60,0.40673
5.1,60,0.58778
5.1333,60,0.74314
5.1667,60,0.86602
5.2,60,0.95105
5.2333,60,0.99452
5.2667,60,0.99452
5.3,60,0.95106
5.3333,60,0.86603
5.3667,60,0.74315
5.4,60,0.58779
5.4333,60,0.40674
5.4667,60,0.20792
5.5,60,7.1895e-06
5.5333,60,-0.2079
5.5667,60,-0.40673
5.6,60,-0.58778
5.6333,60,-0.74314
5.6667,60,-0.86602
5.7,60,-0.95105
5.7333,60,-0.99452
5.7667,60,-0.99452
5.8,60,-0.95106
5.8333,60,-0.86603
5.8667,60,-0.74315
5.9,60,-0.58779
5.9333,60,-0.40674
5.9667,60,-0.20792
6,60,-7.8431e-06
6.0333,60,0.2079
6.0667,60,0.40673
6.1,60,0.58778
6.1333,60,0.74314
6.1667,60,0.86602
6.2,60,0.95105
6.2333,60,0.99452
6.2667,60,0.99452
6.3,60,0.95106
6.3333,60,0.86603
6.3667,60,0.74315
6.4,60,0.58779
6.4333,60,0.40674
6.4667,60,0.20792
6.5,60,8.4967e-06
6.5333,60,-0.2079
6.5667,60,-0.40673
6.6,60,-0.58778
6.6333,60,-0.74314
6.6667,60,-0.86602
6.7,60,-0.95105
6.7333,60,-0.99452
6.7667,60,-0.99452
6.8,60,-0.95106
6.8333,60,-0.86603
6.8667,60,-0.74315
6.9,60,-0.58779
6.9333,60,-0.40674
6.9667,60,-0.20792
7,60,-9.1503e-06
7.0333,60,0.2079
7.0667,60,0.40673
7.1,60,0.58778
7.1333,60,0.74314
7.1667,60,0.86602
7.2,60,0.95105
7.2333,60,0.99452
7.2667,60,0.99452
7.3,60,0.95106
7.3333,60,0.86603
7.3667,60,0.74315
7.4,60,0.58779
7.4333,60,0.40675
7.4667,60,0.20792
7.5,60,9.8038e-06
7.5333,60,-0.2079
7.5667,60,-0.40673
7.6,60,-0.58778
7.6333,60,-0.74314
7.6667,60,-0.86602
7.7,60,-0.95105
7.7333,60,-0.99452
7.7667,60,-0.99452
7.8,60,-0.95106
7.8333,60,-0.86603
7.8667,60,-0.74315
7.9,60,-0.58779
7.9333,60,-0.40675
7.9667,60,-0.20792
8,60,-1.0457e-05
8.0333,60,0.2079
8.0667,60,0.40673
8.1,60,0.58778
8.1333,60,0.74314
8.1667,60,0.86602
8.2,60,0.95105
8.2333,60,0.99452
8.2667,60,0.99452
8.3,60,0.95106
8.3333,60,0.86603
8.3667,60,0.74315
8.4,60,0.58779
8.4333,60,0.40675
8.4667,60,0.20792
8.5,60,1.1111e-05
8.5333,60,-0.2079
8.5667,60,-0.40673
8.6,60,-0.58778
8.6333,60,-0.74314
8.6667,60,-0.86602
8.7,60,-0.95105
8.7333,60,-0.99452
8.7667,60,-0.99452
8.8,60,-0.95106
8.8333,60,-0.86603
8.8667,60,-0.74315
8.9,60,-0.58779
8.9333,60,-0.40675
8.9667,60,-0.20792
9,60,-1.1765e-05
9.0333,60,0.2079
9.0667,60,0.40673
9.1,60,0.58778
9.1333,60,0.74314
9.1667,60,0.86602
9.2,60,0.95105
9.2333,60,0.99452
9.2667,60,0.99452
9.3,60,0.95106
9.3333,60,0.86603
9.3667,60,0.74315
9.4,60,0.5878
9.4333,60,0.40675
9.4667,60,0.20792
9.5,60,1.2418e-05
9.5333,60,-0.2079
9.5667,60,-0.40673
9.6,60,-0.58778
9.6333,60,-0.74314
9.6667,60,-0.86602
9.7,60,-0.95105
9.7333,60,-0.99452
9.7667,60,-0.99452
9.8,60,-0.95106
9.8333,60,-0.86603
9.8667,60,-0.74315
9.9,60,-0.5878
9.9333,60,-0.40675
9.9667,60,-0.20792
10,60,-1.3072e-05
10.0333,60,0.2079
10.0667,60,0.40672
10.1,60,0.58777
10.1333,60,0.74314
10.1667,60,0.86602
10.2,60,0.95105
10.2333,60,0.99452
10.2667,60,0.99452
10.3,60,0.95106
10.3333,60,0.86603
10.3667,60,0.74315
10.4,60,0.5878
10.4333,60,0.40675
10.4667,60,0.20793
10.5,60,1.3725e-05
10.5333,60,-0.2079
10.5667,60,-0.40672
10.6,60,-0.58777
10.6333,60,-0.74314
10.6667,60,-0.86602
10.7,60,-0.95105
10.7333,60,-0.99452
10.7667,60,-0.99452
10.8,60,-0.95106
10.8333,60,-0.86603
10.8667,60,-0.74315
10.9,60,-0.5878
10.9333,60,-0.40675
10.9667,60,-0.20793
11,60,-1.4379e-05
11.0333,60,0.2079
11.0667,60,0.40672
11.1,60,0.58777
11.1333,60,0.74314
11.1667,60,0.86602
11.2,60,0.95105
11.2333,60,0.99452
11.2667,60,0.99452
11.3,60,0.95106
11.3333,60,0.86603
11.3667,60,0.74315
11.4,60,0.5878
11.4333,60,0.40675
11.4667,60,0.20793
11.5,60,1.5033e-05
11.5333,60,-0.2079
11.5667,60,-0.40672
11.6,60,-0.58777
11.6333,60,-0.74313
11.6667,60,-0.86602
11.7,60,-0.95105
11.7333,60,-0.99452
11.7667,60,-0.99452
11.8,60,-0.95106
11.8333,60,-0.86603
11.8667,60,-0.74316
11.9,60,-0.5878
11.9333,60,-0.40675
11.9667,60,-0.20793
12,60,-1.5686e-05
12.0333,60,0.2079
12.0667,60,0.40672
12.1,60,0.58777
12.1333,60,0.74313
12.1667,60,0.86602
12.2,60,0.95105
12.2333,60,0.99452
12.2667,60,0.99452
12.3,60,0.95106
12.3333,60,0.86603
12.3667,60,0.74316
12.4,60,0.5878
12.4333,60,0.40675
12.4667,60,0.20793
12.5,60,1.634e-05
12.5333,60,-0.2079
12.5667,60,-0.40672
12.6,60,-0.58777
12.6333,60,-0.74313
12.6667,60,-0.86602
12.7,60,-0.95105
12.7333,60,-0.99452
12.7667,60,-0.99452
12.8,60,-0.95106
12.8333,60,-0.86603
12.8667,60,-0.74316
12.9,60,-0.5878
12.9333,60,-0.40675
12.9667,60,-0.20793
13,60,-1.6993e-05
13.0333,60,0.2079
13.0667,60,0.40672
13.1,60,0.58777
13.1333,60,0.74313
13.1667,60,0.86602
13.2,60,0.95105
13.2333,60,0.99452
13.2667,60,0.99452
13.3,60,0.95106
13.3333,60,0.86603
13.3667,60,0.74316
13.4,60,0.5878
13.4333,60,0.40675
13.4667,60,0.20793
13.5,60,1.7647e-05
13.5333,60,-0.20789
13.5667,60,-0.40672
13.6,60,-0.58777
13.6333,60,-0.74313
13.6667,60,-0.86602
13.7,60,-0.95105
13.7333,60,-0.99452
13.7667,60,-0.99452
13.8,60,-0.95106
13.8333,60,-0.86603
13.8667,60,-0.74316
13.9,60,-0.5878
13.9333,60,-0.40675
13.9667,60,-0.20793
14,60,-1.8301e-05
14.0333,60,0.20789
14.0667,60,0.40672
14.1,60,0.58777
14.1333,60,0.74313
14.1667,60,0.86602
14.2,60,0.95105
14.2333,60,0.99452
14.2667,60,0.99452
14.3,60,0.95106
14.3333,60,0.86603
14.3667,60,0.74316
14.4,60,0.5878
14.4333,60,0.40675
14.4667,60,0.20793
14.5,60,1.8954e-05
14.5333,60,-0.20789
14.5667,60,-0.40672
14.6,60,-0.58777
14.6333,60,-0.74313
14.6667,60,-0.86602
14.7,60,-0.95105
14.7333,60,-0.99452
14.7667,60,-0.99452
14.8,60,-0.95106
14.8333,60,-0.86604
14.8667,60,-0.74316
14.9,60,-0.5878
14.9333,60,-0.40675
14.9667,60,-0.20793
15,60,-1.9608e-05
15.0333,60,0.20789
15.0667,60,0.40672
15.1,60,0.58777
15.1333,60,0.74313
15.1667,60,0.86602
15.2,60,0.95105
15.2333,60,0.99452
15.2667,60,0.99452
15.3,60,0.95106
15.3333,60,0.86604
15.3667,60,0.74316
15.4,60,0.5878
15.4333,60,0.40676
15.4667,60,0.20793
15.5,60,2.0261e-05
15.5333,60,-0.20789
15.5667,60,-0.40672
15.6,60,-0.58777
15.6333,60,-0.74313
15.6667,60,-0.86602
15.7,60,-0.95105
15.7333,60,-0.99452
15.7667,60,-0.99452
15.8,60,-0.95106
15.8333,60,-0.86604
15.8667,60,-0.74316
15.9,60,-0.5878
15.9333,60,-0.40676
15.9667,60,-0.20793
16,60,-2.0915e-05
16.0333,60,0.20789
16.0667,60,0.40672
16.1,60,0.58777
16.1333,60,0.74313
16.1667,60,0.86601
16.2,60,0.95105
16.2333,60,0.99452
16.2667,60,0.99452
16.3,60,0.95106
16.3333,60,0.86604
16.3667,60,0.74316
16.4,60,0.5878
16.4333,60,0.40676
16.4667,60,0.20793
16.5,60,2.1568e-05
16.5333,60,-0.20789
16.5667,60,-0.40672
16.6,60,-0.58777
16.6333,60,-0.74313
16.6667,60,-0.86601
16.7,60,-0.95105
16.7333,60,-0.99452
16.7667,60,-0.99452
16.8,60,-0.95106
16.8333,60,-0.86604
16.8667,60,-0.74316
16.9,60,-0.5878
16.9333,60,-0.40676
16.9667,60,-0.20793
17,60,-2.2222e-05
17.0333,60,0.20789
17.0667,60,0.40672
17.1,60,0.58777
17.1333,60,0.74313
17.1667,60,0.86601
17.2,60,0.95105
17.2333,60,0.99452
17.2667,60,0.99452
17.3,60,0.95106
17.3333,60,0.86604
17.3667,60,0.74316
17.4,60,0.5878
17.4333,60,0.40676
17.4667,60,0.20793
17.5,60,2.2876e-05
17.5333,60,-0.20789
17.5667,60,-0.40672
17.6,60,-0.58777
17.6333,60,-0.74313
17.6667,60,-0.86601
17.7,60,-0.95105
17.7333,60,-0.99452
17.7667,60,-0.99452
17.8,60,-0.95106
17.8333,60,-0.86604
17.8667,60,-0.74316
17.9,60,-0.5878
17.9333,60,-0.40676
17.9667,60,-0.20793
18,60,-2.3529e-05
18.0333,60,0.20789
18.0667,60,0.40672
18.1,60,0.58777
18.1333,60,0.74313
18.1667,60,0.86601
18.2,60,0.95105
18.2333,60,0.99452
18.2667,60,0.99452
18.3,60,0.95106
18.3333,60,0.86604
18.3667,60,0.74316
18.4,60,0.5878
18.4333,60,0.40676
18.4667,60,0.20794
18.5,60,2.4183e-05
18.5333,60,-0.20789
18.5667,60,-0.40671
18.6,60,-0.58777
18.6333,60,-0.74313
18.6667,60,-0.86601
18.7,60,-0.95105
18.7333,60,-0.99452
18.7667,60,-0.99452
18.8,60,-0.95106
18.8333,60,-0.86604
18.8667,60,-0.74316
18.9,60,-0.58781
18.9333,60,-0.40676
18.9667,60,-0.20794
19,60,-2.4836e-05
19.0333,60,0.20789
19.0667,60,0.40671
19.1,60,0.58777
19.1333,60,0.74313
19.1667,60,0.86601
19.2,60,0.95105
19.2333,60,0.99452
19.2667,60,0.99452
19.3,60,0.95106
19.3333,60,0.86604
19.3667,60,0.74316
19.4,60,0.58781
19.4333,60,0.40676
19.4667,60,0.20794
19.5,60,2.549e-05
19.5333,60,-0.20789
19.5667,60,-0.40671
19.6,60,-0.58776
19.6333,60,-0.74313
19.6667,60,-0.86601
19.7,60,-0.95105
19.7333,60,-0.99452
19.7667,60,-0.99452
19.8,60,-0.95106
19.8333,60,-0.86604
19.8667,60,-0.74316
19.9,60,-0.58781
19.9333,60,-0.40676
19.9667,60,-0.20794
20,60,-2.6144e-05
20.0333,60,0.20789
20.0667,60,0.40671
20.1,60,0.58776
20.1333,60,0.74313
20.1667,60,0.86601
20.2,60,0.95105
20.2333,60,0.99452
20.2667,60,0.99452
20.3,60,0.95106
20.3333,60,0.86604
20.3667,60,0.74316
20.4,60,0.58781
20.4333,60,0.40676
20.4667,60,0.20794
20.5,60,2.6797e-05
20.5333,60,-0.20789
20.5667,60,-0.40671
20.6,60,-0.58776
20.6333,60,-0.74313
20.6667,60,-0.86601
20.7,60,-0.95105
20.7333,60,-0.99452
20.7667,60,-0.99452
20.8,60,-0.95106
20.8333,60,-0.86604
20.8667,60,-0.74316
20.9,60,-0.58781
20.9333,60,-0.40676
20.9667,60,-0.20794
21,60,-2.7451e-05
21.0333,60,0.20788
21.0667,60,0.40671
21.1,60,0.58776
21.1333,60,0.74313
21.1667,60,0.86601
21.2,60,0.95105
21.2333,60,0.99452
21.2667,60,0.99452
21.3,60,0.95107
21.3333,60,0.86604
21.3667,60,0.74316
21.4,60,0.58781
21.4333,60,0.40676
21.4667,60,0.20794
21.5,60,2.8104e-05
21.5333,60,-0.20788
21.5667,60,-0.40671
21.6,60,-0.58776
21.6333,60,-0.74313
21.6667,60,-0.86601
21.7,60,-0.95105
21.7333,60,-0.99452
21.7667,60,-0.99452
21.8,60,-0.95107
21.8333,60,-0.86604
21.8667,60,-0.74316
21.9,60,-0.58781
21.9333,60,-0.40676
21.9667,60,-0.20794
22,60,-2.8758e-05
22.0333,60,0.20788
22.0667,60,0.40671
22.1,60,0.58776
22.1333,60,0.74313
22.1667,60,0.86601
22.2,60,0.95105
22.2333,60,0.99452
22.2667,60,0.99452
22.3,60,0.95107
22.3333,60,0.86604
22.3667,60,0.74316
22.4,60,0.58781
22.4333,60,0.40676
22.4667,60,0.20794
22.5,60,2.9412e-05
22.5333,60,-0.20788
22.5667,60,-0.40671
22.6,60,-0.58776
22.6333,60,-0.74313
22.6667,60,-0.86601
22.7,60,-0.95105
22.7333,60,-0.99452
22.7667,60,-0.99453
22.8,60,-0.95107
22.8333,60,-0.86604
22.8667,60,-0.74316
22.9,60,-0.58781
22.9333,60,-0.40676
22.9667,60,-0.20794
23,60,-3.0065e-05
23.0333,60,0.20788
23.0667,60,0.40671
23.1,60,0.58776
23.1333,60,0.74312
23.1667,60,0.86601
23.2,60,0.95105
23.2333,60,0.99452
23.2667,60,0.99453
23.3,60,0.95107
23.3333,60,0.86604
23.3667,60,0.74317
23.4,60,0.58781
23.4333,60,0.40676
23.4667,60,0.20794
23.5,60,3.0719e-05
23.5333,60,-0.20788
23.5667,60,-0.40671
23.6,60,-0.58776
23.6333,60,-0.74312
23.6667,60,-0.86601
23.7,60,-0.95105
23.7333,60,-0.99452
23.7667,60,-0.99453
23.8,60,-0.95107
23.8333,60,-0.86604
23.8667,60,-0.74317
23.9,60,-0.58781
23.9333,60,-0.40677
23.9667,60,-0.20794
24,60,-3.1372e-05
24.0333,60,0.20788
24.0667,60,0.40671
24.1,60,0.58776
24.1333,60,0.74312
24.1667,60,0.86601
24.2,60,0.95105
24.2333,60,0.99452
24.2667,60,0.99453
24.3,60,0.95107
24.3333,60,0.86604
24.3667,60,0.74317
24.4,60,0.58781
24.4333,60,0.40677
24.4667,60,0.20794
24.5,60,3.2026e-05
24.5333,60,-0.20788
24.5667,60,-0.40671
24.6,60,-0.58776
24.6333,60,-0.74312
24.6667,60,-0.86601
24.7,60,-0.95105
24.7333,60,-0.99452
24.7667,60,-0.99453
24.8,60,-0.95107
24.8333,60,-0.86604
24.8667,60,-0.74317
24.9,60,-0.58781
24.9333,60,-0.40677
24.9667,60,-0.20794
25,60,-3.2679e-05
25.0333,60,0.20788
25.0667,60,0.40671
25.1,60,0.58776
25.1333,60,0.74312
25.1667,60,0.86601
25.2,60,0.95105
25.2333,60,0.99452
25.2667,60,0.99453
25.3,60,0.95107
25.3333,60,0.86604
25.3667,60,0.74317
25.4,60,0.58781
25.4333,60,0.40677
25.4667,60,0.20794
25.5,60,3.3333e-05
25.5333,60,-0.20788
25.5667,60,-0.40671
25.6,60,-0.58776
25.6333,60,-0.74312
25.6667,60,-0.86601
25.7,60,-0.95105
25.7333,60,-0.99452
25.7667,60,-0.99453
25.8,60,-0.95107
25.8333,60,-0.86604
25.8667,60,-0.74317
25.9,60,-0.58781
25.9333,60,-0.40677
25.9667,60,-0.20794
26,60,-3.3987e-05
26.0333,60,0.20788
26.0667,60,0.40671
26.1,60,0.58776
26.1333,60,0.74312
26.1667,60,0.86601
26.2,60,0.95105
26.2333,60,0.99452
26.2667,60,0.99453
26.3,60,0.95107
26.3333,60,0.86604
26.3667,60,0.74317
26.4,60,0.58781
26.4333,60,0.40677
26.4667,60,0.20795
26.5,60,3.464e-05
26.5333,60,-0.20788
26.5667,60,-0.4067
26.6,60,-0.58776
26.6333,60,-0.74312
26.6667,60,-0.86601
26.7,60,-0.95105
26.7333,60,-0.99452
26.7667,60,-0.99453
26.8,60,-0.95107
26.8333,60,-0.86604
26.8667,60,-0.74317
26.9,60,-0.58781
26.9333,60,-0.40677
26.9667,60,-0.20795
27,60,-3.5294e-05
27.0333,60,0.20788
27.0667,60,0.4067
27.1,60,0.58776
27.1333,60,0.74312
27.1667,60,0.86601
27.2,60,0.95105
27.2333,60,0.99452
27.2667,60,0.99453
27.3,60,0.95107
27.3333,60,0.86604
27.3667,60,0.74317
27.4,60,0.58781
27.4333,60,0.40677
27.4667,60,0.20795
27.5,60,3.5947e-05
27.5333,60,-0.20788
27.5667,60,-0.4067
27.6,60,-0.58776
27.6333,60,-0.74312
27.6667,60,-0.86601
27.7,60,-0.95105
27.7333,60,-0.99452
27.7667,60,-0.99453
27.8,60,-0.95107
27.8333,60,-0.86604
27.8667,60,-0.74317
27.9,60,-0.58781
27.9333,60,-0.40677
27.9667,60,-0.20795
28,60,-3.6601e-05
28.0333,60,0.20788
28.0667,60,0.4067
28.1,60,0.58776
28.1333,60,0.74312
28.1667,60,0.86601
28.2,60,0.95105
28.2333,60,0.99452
28.2667,60,0.99453
28.3,60,0.95107
28.3333,60,0.86604
28.3667,60,0.74317
28.4,60,0.58782
28.4333,60,0.40677
28.4667,60,0.20795
28.5,60,3.7255e-05
28.5333,60,-0.20788
28.5667,60,-0.4067
28.6,60,-0.58776
28.6333,60,-0.74312
28.6667,60,-0.86601
28.7,60,-0.95104
28.7333,60,-0.99452
28.7667,60,-0.99453
28.8,60,-0.95107
28.8333,60,-0.86604
28.8667,60,-0.74317
28.9,60,-0.58782
28.9333,60,-0.40677
28.9667,60,-0.20795
29,60,-3.7908e-05
29.0333,60,0.20787
29.0667,60,0.4067
29.1,60,0.58775
29.1333,60,0.74312
29.1667,60,0.86601
29.2,60,0.95104
29.2333,60,0.99452
29.2667,60,0.99453
29.3,60,0.95107
29.3333,60,0.86604
29.3667,60,0.74317
29.4,60,0.58782
29.4333,60,0.40677
29.4667,60,0.20795
29.5,60,3.8562e-05
29.5333,60,-0.20787
29.5667,60,-0.4067
29.6,60,-0.58775
29.6333,60,-0.74312
29.6667,60,-0.86601
29.7,60,-0.95104
29.7333,60,-0.99452
29.7667,60,-0.99453
29.8,60,-0.95107
29.8333,60,-0.86604
29.8667,60,-0.74317
29.9,60,-0.58782
29.9333,60,-0.40677
29.9667,60,-0.20795
30,60,-3.9215e-05
30.0333,60,0.20787
30.0667,60,0.4067
30.1,60,0.58775
30.1333,60,0.74312
30.1667,60,0.86601
30.2,60,0.95104
30.2333,60,0.99452
30.2667,60,0.99453
30.3,60,0.95107
30.3333,60,0.86605
30.3667,60,0.74317
30.4,60,0.58782
30.4333,60,0.40677
30.4667,60,0.20795
30.5,60,3.9869e-05
30.5333,60,-0.20787
30.5667,60,-0.4067
30.6,60,-0.58775
30.6333,60,-0.74312
30.6667,60,-0.86601
30.7,60,-0.95104
30.7333,60,-0.99452
30.7667,60,-0.99453
30.8,60,-0.95107
30.8333,60,-0.86605
30.8667,60,-0.74317
30.9,60,-0.58782
30.9333,60,-0.40677
30.9667,60,-0.20795
31,60,-4.0523e-05
31.0333,60,0.20787
31.0667,60,0.4067
31.1,60,0.58775
31.1333,60,0.74312
31.1667,60,0.86601
31.2,60,0.95104
31.2333,60,0.99452
31.2667,60,0.99453
31.3,60,0.95107
31.3333,60,0.86605
31.3667,60,0.74317
31.4,60,0.58782
31.4333,60,0.40677
31.4667,60,0.20795
31.5,60,4.1176e-05
31.5333,60,-0.20787
31.5667,60,-0.4067
31.6,60,-0.58775
31.6333,60,-0.74312
31.6667,60,-0.866
31.7,60,-0.95104
31.7333,60,-0.99452
31.7667,60,-0.99453
31.8,60,-0.95107
31.8333,60,-0.86605
31.8667,60,-0.74317
31.9,60,-0.58782
31.9333,60,-0.40677
31.9667,60,-0.20795
32,60,-4.183e-05
32.0333,60,0.20787
32.0667,60,0.4067
32.1,60,0.58775
32.1333,60,0.74312
32.1667,60,0.866
32.2,60,0.95104
32.2333,60,0.99452
32.2667,60,0.99453
32.3,60,0.95107
32.3333,60,0.86605
32.3667,60,0.74317
32.4,60,0.58782
32.4333,60,0.40678
32.4667,60,0.20795
32.5,60,4.2483e-05
32.5333,60,-0.20787
32.5667,60,-0.4067
32.6,60,-0.58775
32.6333,60,-0.74312
32.6667,60,-0.866
32.7,60,-0.95104
32.7333,60,-0.99452
32.7667,60,-0.99453
32.8,60,-0.95107
32.8333,60,-0.86605
32.8667,60,-0.74317
32.9,60,-0.58782
32.9333,60,-0.40678
32.9667,60,-0.20795
33,60,-4.3137e-05
33.0333,60,0.20787
33.0667,60,0.4067
33.1,60,0.58775
33.1333,60,0.74312
33.1667,60,0.866
33.2,60,0.95104
33.2333,60,0.99452
33.2667,60,0.99453
33.3,60,0.95107
33.3333,60,0.86605
33.3667,60,0.74317
33.4,60,0.58782
33.4333,60,0.40678
33.4667,60,0.20795
33.5,60,4.3791e-05
33.5333,60,-0.20787
33.5667,60,-0.4067
33.6,60,-0.58775
33.6333,60,-0.74312
33.6667,60,-0.866
33.7,60,-0.95104
33.7333,60,-0.99452
33.7667,60,-0.99453
33.8,60,-0.95107
33.8333,60,-0.86605
33.8667,60,-0.74317
33.9,60,-0.58782
33.9333,60,-0.40678
33.9667,60,-0.20796
34,60,-4.4444e-05
34.0333,60,0.20787
34.0667,60,0.4067
34.1,60,0.58775
34.1333,60,0.74311
34.1667,60,0.866
34.2,60,0.95104
34.2333,60,0.99452
34.2667,60,0.99453
34.3,60,0.95107
34.3333,60,0.86605
34.3667,60,0.74317
34.4,60,0.58782
34.4333,60,0.40678
34.4667,60,0.20796
34.5,60,4.5098e-05
34.5333,60,-0.20787
34.5667,60,-0.4067
34.6,60,-0.58775
34.6333,60,-0.74311
34.6667,60,-0.866
34.7,60,-0.95104
34.7333,60,-0.99452
34.7667,60,-0.99453
34.8,60,-0.95107
34.8333,60,-0.86605
34.8667,60,-0.74318
34.9,60,-0.58782
34.9333,60,-0.40678
34.9667,60,-0.20796
35,60,-4.5751e-05
35.0333,60,0.20787
35.0667,60,0.40669
35.1,60,0.58775
35.1333,60,0.74311
35.1667,60,0.866
35.2,60,0.95104
35.2333,60,0.99452
35.2667,60,0.99453
35.3,60,0.95107
35.3333,60,0.86605
35.3667,60,0.74318
35.4,60,0.58782
35.4333,60,0.40678
35.4667,60,0.20796
35.5,60,4.6405e-05
35.5333,60,-0.20787
35.5667,60,-0.40669
35.6,60,-0.58775
35.6333,60,-0.74311
35.6667,60,-0.866
35.7,60,-0.95104
35.7333,60,-0.99452
35.7667,60,-0.99453
35.8,60,-0.95107
35.8333,60,-0.86605
35.8667,60,-0.74318
35.9,60,-0.58782
35.9333,60,-0.40678
35.9667,60,-0.20796
36,60,-4.7058e-05
36.0333,60,0.20787
36.0667,60,0.40669
36.1,60,0.58775
36.1333,60,0.74311
36.1667,60,0.866
36.2,60,0.95104
36.2333,60,0.99452
36.2667,60,0.99453
36.3,60,0.95107
36.3333,60,0.86605
36.3667,60,0.74318
36.4,60,0.58782
36.4333,60,0.40678
36.4667,60,0.20796
36.5,60,4.7712e-05
36.5333,60,-0.20786
36.5667,60,-0.40669
36.6,60,-0.58775
36.6333,60,-0.74311
36.6667,60,-0.866
36.7,60,-0.95104
36.7333,60,-0.99452
36.7667,60,-0.99453
36.8,60,-0.95107
36.8333,60,-0.86605
36.8667,60,-0.74318
36.9,60,-0.58782
36.9333,60,-0.40678
36.9667,60,-0.20796
37,60,-4.8366e-05
37.0333,60,0.20786
37.0667,60,0.40669
37.1,60,0.58775
37.1333,60,0.74311
37.1667,60,0.866
37.2,60,0.95104
37.2333,60,0.99452
37.2667,60,0.99453
37.3,60,0.95107
37.3333,60,0.86605
37.3667,60,0.74318
37.4,60,0.58782
37.4333,60,0.40678
37.4667,60,0.20796
37.5,60,4.9019e-05
37.5333,60,-0.20786
37.5667,60,-0.40669
37.6,60,-0.58775
37.6333,60,-0.74311
37.6667,60,-0.866
37.7,60,-0.95104
37.7333,60,-0.99452
37.7667,60,-0.99453
37.8,60,-0.95107
37.8333,60,-0.86605
37.8667,60,-0.74318
37.9,60,-0.58783
37.9333,60,-0.40678
37.9667,60,-0.20796
38,60,-4.9673e-05
38.0333,60,0.20786
38.0667,60,0.40669
38.1,60,0.58774
38.1333,60,0.74311
38.1667,60,0.866
38.2,60,0.95104
38.2333,60,0.99452
38.2667,60,0.99453
38.3,60,0.95107
38.3333,60,0.86605
38.3667,60,0.74318
38.4,60,0.58783
38.4333,60,0.40678
38.4667,60,0.20796
38.5,60,5.0326e-05
38.5333,60,-0.20786
38.5667,60,-0.40669
38.6,60,-0.58774
38.6333,60,-0.74311
38.6667,60,-0.866
38.7,60,-0.95104
38.7333,60,-0.99452
38.7667,60,-0.99453
38.8,60,-0.95107
38.8333,60,-0.86605
38.8667,60,-0.74318
38.9,60,-0.58783
38.9333,60,-0.40678
38.9667,60,-0.20796
39,60,-5.098e-05
39.0333,60,0.20786
39.0667,60,0.40669
39.1,60,0.58774
39.1333,60,0.74311
39.1667,60,0.866
39.2,60,0.95104
39.2333,60,0.99452
39.2667,60,0.99453
39.3,60,0.95107
39.3333,60,0.86605
39.3667,60,0.74318
39.4,60,0.58783
39.4333,60,0.40678
39.4667,60,0.20796
39.5,60,5.1634e-05
39.5333,60,-0.20786
39.5667,60,-0.40669
39.6,60,-0.58774
39.6333,60,-0.74311
39.6667,60,-0.866
39.7,60,-0.95104
39.7333,60,-0.99452
39.7667,60,-0.99453
39.8,60,-0.95107
39.8333,60,-0.86605
39.8667,60,-0.74318
39.9,60,-0.58783
39.9333,60,-0.40678
39.9667,60,-0.20796
40,60,-5.2287e-05
40.0333,60,0.20786
40.0667,60,0.40669
40.1,60,0.58774
40.1333,60,0.74311
40.1667,60,0.866
40.2,60,0.95104
40.2333,60,0.99452
40.2667,60,0.99453
40.3,60,0.95107
40.3333,60,0.86605
40.3667,60,0.74318
40.4,60,0.58783
40.4333,60,0.40678
40.4667,60,0.20796
40.5,60,5.2941e-05
40.5333,60,-0.20786
40.5667,60,-0.40669
40.6,60,-0.58774
40.6333,60,-0.74311
40.6667,60,-0.866
40.7,60,-0.95104
40.7333,60,-0.99452
40.7667,60,-0.99453
40.8,60,-0.95107
40.8333,60,-0.86605
40.8667,60,-0.74318
40.9,60,-0.58783
40.9333,60,-0.40679
40.9667,60,-0.20796
41,60,-5.3594e-05
41.0333,60,0.20786
41.0667,60,0.40669
41.1,60,0.58774
41.1333,60,0.74311
41.1667,60,0.866
41.2,60,0.95104
41.2333,60,0.99452
41.2667,60,0.99453
41.3,60,0.95107
41.3333,60,0.86605
41.3667,60,0.74318
41.4,60,0.58783
41.4333,60,0.40679
41.4667,60,0.20796
41.5,60,5.4248e-05
41.5333,60,-0.20786
41.5667,60,-0.40669
41.6,60,-0.58774
41.6333,60,-0.74311
41.6667,60,-0.866
41.7,60,-0.95104
41.7333,60,-0.99452
41.7667,60,-0.99453
41.8,60,-0.95107
41.8333,60,-0.86605
41.8667,60,-0.74318
41.9,60,-0.58783
41.9333,60,-0.40679
41.9667,60,-0.20797
42,60,-5.4902e-05
42.0333,60,0.20786
42.0667,60,0.40669
42.1,60,0.58774
42.1333,60,0.74311
42.1667,60,0.866
42.2,60,0.95104
42.2333,60,0.99452
42.2667,60,0.99453
42.3,60,0.95107
42.3333,60,0.86605
42.3667,60,0.74318
42.4,60,0.58783
42.4333,60,0.40679
42.4667,60,0.20797
42.5,60,5.5555e-05
42.5333,60,-0.20786
42.5667,60,-0.40669
42.6,60,-0.58774
42.6333,60,-0.74311
42.6667,60,-0.866
42.7,60,-0.95104
42.7333,60,-0.99452
42.7667,60,-0.99453
42.8,60,-0.95107
42.8333,60,-0.86605
42.8667,60,-0.74318
42.9,60,-0.58783
42.9333,60,-0.40679
42.9667,60,-0.20797
43,60,-5.6209e-05
43.0333,60,0.20786
43.0667,60,0.40669
43.1,60,0.58774
43.1333,60,0.74311
43.1667,60,0.866
43.2,60,0.95104
43.2333,60,0.99452
43.2667,60,0.99453
43.3,60,0.95107
43.3333,60,0.86605
43.3667,60,0.74318
43.4,60,0.58783
43.4333,60,0.40679
43.4667,60,0.20797
43.5,60,5.6862e-05
43.5333,60,-0.20786
43.5667,60,-0.40668
43.6,60,-0.58774
43.6333,60,-0.74311
43.6667,60,-0.866
43.7,60,-0.95104
43.7333,60,-0.99452
43.7667,60,-0.99453
43.8,60,-0.95107
43.8333,60,-0.86605
43.8667,60,-0.74318
43.9,60,-0.58783
43.9333,60,-0.40679
43.9667,60,-0.20797
44,60,-5.7516e-05
44.0333,60,0.20786
44.0667,60,0.40668
44.1,60,0.58774
44.1333,60,0.74311
44.1667,60,0.866
44.2,60,0.95104
44.2333,60,0.99452
44.2667,60,0.99453
44.3,60,0.95107
44.3333,60,0.86605
44.3667,60,0.74318
44.4,60,0.58783
44.4333,60,0.40679
44.4667,60,0.20797
44.5,60,5.8169e-05
44.5333,60,-0.20785
44.5667,60,-0.40668
44.6,60,-0.58774
44.6333,60,-0.74311
44.6667,60,-0.866
44.7,60,-0.95104
44.7333,60,-0.99452
44.7667,60,-0.99453
44.8,60,-0.95107
44.8333,60,-0.86605
44.8667,60,-0.74318
44.9,60,-0.58783
44.9333,60,-0.40679
44.9667,60,-0.20797
45,60,-5.8823e-05
45.0333,60,0.20785
45.0667,60,0.40668
45.1,60,0.58774
45.1333,60,0.74311
45.1667,60,0.866
45.2,60,0.95104
45.2333,60,0.99452
45.2667,60,0.99453
45.3,60,0.95107
45.3333,60,0.86606
45.3667,60,0.74318
45.4,60,0.58783
45.4333,60,0.40679
45.4667,60,0.20797
45.5,60,5.9477e-05
45.5333,60,-0.20785
45.5667,60,-0.40668
45.6,60,-0.58774
45.6333,60,-0.7431
45.6667,60,-0.866
45.7,60,-0.95104
45.7333,60,-0.99452
45.7667,60,-0.99453
45.8,60,-0.95108
45.8333,60,-0.86606
45.8667,60,-0.74318
45.9,60,-0.58783
45.9333,60,-0.40679
45.9667,60,-0.20797
46,60,-6.013e-05
46.0333,60,0.20785
46.0667,60,0.40668
46.1,60,0.58774
46.1333,60,0.7431
46.1667,60,0.866
46.2,60,0.95104
46.2333,60,0.99452
46.2667,60,0.99453
46.3,60,0.95108
46.3333,60,0.86606
46.3667,60,0.74319
46.4,60,0.58783
46.4333,60,0.40679
46.4667,60,0.20797
46.5,60,6.0784e-05
46.5333,60,-0.20785
46.5667,60,-0.40668
46.6,60,-0.58774
46.6333,60,-0.7431
46.6667,60,-0.86599
46.7,60,-0.95104
46.7333,60,-0.99452
46.7667,60,-0.99453
46.8,60,-0.95108
46.8333,60,-0.86606
46.8667,60,-0.74319
46.9,60,-0.58783
46.9333,60,-0.40679
46.9667,60,-0.20797
47,60,-6.1437e-05
47.0333,60,0.20785
47.0667,60,0.40668
47.1,60,0.58774
47.1333,60,0.7431
47.1667,60,0.86599
47.2,60,0.95104
47.2333,60,0.99452
47.2667,60,0.99453
47.3,60,0.95108
47.3333,60,0.86606
47.3667,60,0.74319
47.4,60,0.58784
47.4333,60,0.40679
47.4667,60,0.20797
47.5,60,6.2091e-05
47.5333,60,-0.20785
47.5667,60,-0.40668
47.6,60,-0.58773
47.6333,60,-0.7431
47.6667,60,-0.86599
47.7,60,-0.95104
47.7333,60,-0.99452
47.7667,60,-0.99453
47.8,60,-0.95108
47.8333,60,-0.86606
47.8667,60,-0.74319
47.9,60,-0.58784
47.9333,60,-0.40679
47.9667,60,-0.20797
48,60,-6.2745e-05
48.0333,60,0.20785
48.0667,60,0.40668
48.1,60,0.58773
48.1333,60,0.7431
48.1667,60,0.86599
48.2,60,0.95104
48.2333,60,0.99452
48.2667,60,0.99453
48.3,60,0.95108
48.3333,60,0.86606
48.3667,60,0.74319
48.4,60,0.58784
48.4333,60,0.40679
48.4667,60,0.20797
48.5,60,6.3398e-05
48.5333,60,-0.20785
48.5667,60,-0.40668
48.6,60,-0.58773
48.6333,60,-0.7431
48.6667,60,-0.86599
48.7,60,-0.95104
48.7333,60,-0.99452
48.7667,60,-0.99453
48.8,60,-0.95108
48.8333,60,-0.86606
48.8667,60,-0.74319
48.9,60,-0.58784
48.9333,60,-0.4068
48.9667,60,-0.20797
49,60,-6.4052e-05
49.0333,60,0.20785
49.0667,60,0.40668
49.1,60,0.58773
49.1333,60,0.7431
49.1667,60,0.86599
49.2,60,0.95104
49.2333,60,0.99452
49.2667,60,0.99453
49.3,60,0.95108
49.3333,60,0.86606
49.3667,60,0.74319
49.4,60,0.58784
49.4333,60,0.4068
49.4667,60,0.20797
49.5,60,6.4705e-05
49.5333,60,-0.20785
49.5667,60,-0.40668
49.6,60,-0.58773
49.6333,60,-0.7431
49.6667,60,-0.86599
49.7,60,-0.95104
49.7333,60,-0.99452
49.7667,60,-0.99453
49.8,60,-0.95108
49.8333,60,-0.86606
49.8667,60,-0.74319
49.9,60,-0.58784
49.9333,60,-0.4068
49.9667,60,-0.20798
50,60,-6.5359e-05
50.0333,60,0.20785
50.0667,60,0.40668
50.1,60,0.58773
50.1333,60,0.7431
50.1667,60,0.86599
50.2,60,0.95104
50.2333,60,0.99452
50.2667,60,0.99453
50.3,60,0.95108
50.3333,60,0.86606
50.3667,60,0.74319
50.4,60,0.58784
50.4333,60,0.4068
50.4667,60,0.20798
50.5,60,6.6013e-05
50.5333,60,-0.20785
50.5667,60,-0.40668
50.6,60,-0.58773
50.6333,60,-0.7431
50.6667,60,-0.86599
50.7,60,-0.95104
50.7333,60,-0.99451
50.7667,60,-0.99453
50.8,60,-0.95108
50.8333,60,-0.86606
50.8667,60,-0.74319
50.9,60,-0.58784
50.9333,60,-0.4068
50.9667,60,-0.20798
51,60,-6.6666e-05
51.0333,60,0.20785
51.0667,60,0.40668
51.1,60,0.58773
51.1333,60,0.7431
51.1667,60,0.86599
51.2,60,0.95104
51.2333,60,0.99451
51.2667,60,0.99453
51.3,60,0.95108
51.3333,60,0.86606
51.3667,60,0.74319
51.4,60,0.58784
51.4333,60,0.4068
51.4667,60,0.20798
51.5,60,6.732e-05
51.5333,60,-0.20785
51.5667,60,-0.40668
51.6,60,-0.58773
51.6333,60,-0.7431
51.6667,60,-0.86599
51.7,60,-0.95104
51.7333,60,-0.99451
51.7667,60,-0.99453
51.8,60,-0.95108
51.8333,60,-0.86606
51.8667,60,-0.74319
51.9,60,-0.58784
51.9333,60,-0.4068
51.9667,60,-0.20798
52,60,-6.7973e-05
52.0333,60,0.20785
52.0667,60,0.40667
52.1,60,0.58773
52.1333,60,0.7431
52.1667,60,0.86599
52.2,60,0.95104
52.2333,60,0.99451
52.2667,60,0.99453
52.3,60,0.95108
52.3333,60,0.86606
52.3667,60,0.74319
52.4,60,0.58784
52.4333,60,0.4068
52.4667,60,0.20798
52.5,60,6.8627e-05
52.5333,60,-0.20784
52.5667,60,-0.40667
52.6,60,-0.58773
52.6333,60,-0.7431
52.6667,60,-0.86599
52.7,60,-0.95104
52.7333,60,-0.99451
52.7667,60,-0.99453
52.8,60,-0.95108
52.8333,60,-0.86606
52.8667,60,-0.74319
52.9,60,-0.58784
52.9333,60,-0.4068
52.9667,60,-0.20798
53,60,-6.9281e-05
53.0333,60,0.20784
53.0667,60,0.40667
53.1,60,0.58773
53.1333,60,0.7431
53.1667,60,0.86599
53.2,60,0.95104
53.2333,60,0.99451
53.2667,60,0.99453
53.3,60,0.95108
53.3333,60,0.86606
53.3667,60,0.74319
53.4,60,0.58784
53.4333,60,0.4068
53.4667,60,0.20798
53.5,60,6.9934e-05
53.5333,60,-0.20784
53.5667,60,-0.40667
53.6,60,-0.58773
53.6333,60,-0.7431
53.6667,60,-0.86599
53.7,60,-0.95103
53.7333,60,-0.99451
53.7667,60,-0.99453
53.8,60,-0.95108
53.8333,60,-0.86606
53.8667,60,-0.74319
53.9,60,-0.58784
53.9333,60,-0.4068
53.9667,60,-0.20798
54,60,-7.0588e-05
54.0333,60,0.20784
54.0667,60,0.40667
54.1,60,0.58773
54.1333,60,0.7431
54.1667,60,0.86599
54.2,60,0.95103
54.2333,60,0.99451
54.2667,60,0.99453
54.3,60,0.95108
54.3333,60,0.86606
54.3667,60,0.74319
54.4,60,0.58784
54.4333,60,0.4068
54.4667,60,0.20798
54.5,60,7.1241e-05
54.5333,60,-0.20784
54.5667,60,-0.40667
54.6,60,-0.58773
54.6333,60,-0.7431
54.6667,60,-0.86599
54.7,60,-0.95103
54.7333,60,-0.99451
54.7667,60,-0.99453
54.8,60,-0.95108
54.8333,60,-0.86606
54.8667,60,-0.74319
54.9,60,-0.58784
54.9333,60,-0.4068
54.9667,60,-0.20798
55,60,-7.1895e-05
55.0333,60,0.20784
55.0667,60,0.40667
55.1,60,0.58773
55.1333,60,0.7431
55.1667,60,0.86599
55.2,60,0.95103
55.2333,60,0.99451
55.2667,60,0.99453
55.3,60,0.95108
55.3333,60,0.86606
55.3667,60,0.74319
55.4,60,0.58784
55.4333,60,0.4068
55.4667,60,0.20798
55.5,60,7.2548e-05
55.5333,60,-0.20784
55.5667,60,-0.40667
55.6,60,-0.58773
55.6333,60,-0.7431
55.6667,60,-0.86599
55.7,60,-0.95103
55.7333,60,-0.99451
55.7667,60,-0.99453
55.8,60,-0.95108
55.8333,60,-0.86606
55.8667,60,-0.74319
55.9,60,-0.58784
55.9333,60,-0.4068
55.9667,60,-0.20798
56,60,-7.3202e-05
56.0333,60,0.20784
56.0667,60,0.40667
56.1,60,0.58773
56.1333,60,0.7431
56.1667,60,0.86599
56.2,60,0.95103
56.2333,60,0.99451
56.2667,60,0.99453
56.3,60,0.95108
56.3333,60,0.86606
56.3667,60,0.74319
56.4,60,0.58784
56.4333,60,0.4068
56.4667,60,0.20798
56.5,60,7.3856e-05
56.5333,60,-0.20784
56.5667,60,-0.40667
56.6,60,-0.58773
56.6333,60,-0.7431
56.6667,60,-0.86599
56.7,60,-0.95103
56.7333,60,-0.99451
56.7667,60,-0.99453
56.8,60,-0.95108
56.8333,60,-0.86606
56.8667,60,-0.74319
56.9,60,-0.58785
56.9333,60,-0.4068
56.9667,60,-0.20798
57,60,-7.4509e-05
57.0333,60,0.20784
57.0667,60,0.40667
57.1,60,0.58772
57.1333,60,0.74309
57.1667,60,0.86599
57.2,60,0.95103
57.2333,60,0.99451
57.2667,60,0.99453
57.3,60,0.95108
57.3333,60,0.86606
57.3667,60,0.7432
57.4,60,0.58785
57.4333,60,0.40681
57.4667,60,0.20799
57.5,60,7.5163e-05
57.5333,60,-0.20784
57.5667,60,-0.40667
57.6,60,-0.58772
57.6333,60,-0.74309
57.6667,60,-0.86599
57.7,60,-0.95103
57.7333,60,-0.99451
57.7667,60,-0.99453
57.8,60,-0.95108
57.8333,60,-0.86606
57.8667,60,-0.7432
57.9,60,-0.58785
57.9333,60,-0.40681
57.9667,60,-0.20799
58,60,-7.5816e-05
58.0333,60,0.20784
58.0667,60,0.40667
58.1,60,0.58772
58.1333,60,0.74309
58.1667,60,0.86599
58.2,60,0.95103
58.2333,60,0.99451
58.2667,60,0.99453
58.3,60,0.95108
58.3333,60,0.86606
58.3667,60,0.7432
58.4,60,0.58785
58.4333,60,0.40681
58.4667,60,0.20799
58.5,60,7.647e-05
58.5333,60,-0.20784
58.5667,60,-0.40667
58.6,60,-0.58772
58.6333,60,-0.74309
58.6667,60,-0.86599
58.7,60,-0.95103
58.7333,60,-0.99451
58.7667,60,-0.99453
58.8,60,-0.95108
58.8333,60,-0.86606
58.8667,60,-0.7432
58.9,60,-0.58785
58.9333,60,-0.40681
58.9667,60,-0.20799
59,60,-7.7124e-05
59.0333,60,0.20784
59.0667,60,0.40667
59.1,60,0.58772
59.1333,60,0.74309
59.1667,60,0.86599
59.2,60,0.95103
59.2333,60,0.99451
59.2667,60,0.99453
59.3,60,0.95108
59.3333,60,0.86606
59.3667,60,0.7432
59.4,60,0.58785
59.4333,60,0.40681
59.4667,60,0.20799
59.5,60,7.7777e-05
59.5333,60,-0.20784
59.5667,60,-0.40667
59.6,60,-0.58772
59.6333,60,-0.74309
59.6667,60,-0.86599
59.7,60,-0.95103
59.7333,60,-0.99451
59.7667,60,-0.99453
59.8,60,-0.95108
59.8333,60,-0.86606
59.8667,60,-0.7432
59.9,60,-0.58785
59.9333,60,-0.40681
59.9667,60,-0.20799
60,60,-7.8431e-05
60.0333,60,0.20783
60.0667,60,0.40666
60.1,60,0.58772
60.1333,60,0.74309
60.1667,60,0.86599
60.2,60,0.95103
60.2333,60,0.99451
60.2667,60,0.99453
60.3,60,0.95108
60.3333,60,0.86606
60.3667,60,0.7432
60.4,60,0.58785
60.4333,60,0.40681
60.4667,60,0.20799
60.5,60,7.9084e-05
60.5333,60,-0.20783
60.5667,60,-0.40666
60.6,60,-0.58772
60.6333,60,-0.74309
60.6667,60,-0.86599
60.7,60,-0.95103
60.7333,60,-0.99451
60.7667,60,-0.99453
60.8,60,-0.95108
60.8333,60,-0.86607
60.8667,60,-0.7432
60.9,60,-0.58785
60.9333,60,-0.40681
60.9667,60,-0.20799
61,60,-7.9738e-05
61.0333,60,0.20783
61.0667,60,0.40666
61.1,60,0.58772
61.1333,60,0.74309
61.1667,60,0.86599
61.2,60,0.95103
61.2333,60,0.99451
61.2667,60,0.99453
61.3,60,0.95108
61.3333,60,0.86607
61.3667,60,0.7432
61.4,60,0.58785
61.4333,60,0.40681
61.4667,60,0.20799
61.5,60,8.0392e-05
61.5333,60,-0.20783
61.5667,60,-0.40666
61.6,60,-0.58772
61.6333,60,-0.74309
61.6667,60,-0.86599
61.7,60,-0.95103
61.7333,60,-0.99451
61.7667,60,-0.99453
61.8,60,-0.95108
61.8333,60,-0.86607
61.8667,60,-0.7432
61.9,60,-0.58785
61.9333,60,-0.40681
61.9667,60,-0.20799
62,60,-8.1045e-05
62.0333,60,0.20783
62.0667,60,0.40666
62.1,60,0.58772
62.1333,60,0.74309
62.1667,60,0.86598
62.2,60,0.95103
62.2333,60,0.99451
62.2667,60,0.99453
62.3,60,0.95108
62.3333,60,0.86607
62.3667,60,0.7432
62.4,60,0.58785
62.4333,60,0.40681
62.4667,60,0.20799
62.5,60,8.1699e-05
62.5333,60,-0.20783
62.5667,60,-0.40666
62.6,60,-0.58772
62.6333,60,-0.74309
62.6667,60,-0.86598
62.7,60,-0.95103
62.7333,60,-0.99451
62.7667,60,-0.99453
62.8,60,-0.95108
62.8333,60,-0.86607
62.8667,60,-0.7432
62.9,60,-0.58785
62.9333,60,-0.40681
62.9667,60,-0.20799
63,60,-8.2352e-05
63.0333,60,0.20783
63.0667,60,0.40666
63.1,60,0.58772
63.1333,60,0.74309
63.1667,60,0.86598
63.2,60,0.95103
63.2333,60,0.99451
63.2667,60,0.99453
63.3,60,0.95108
63.3333,60,0.86607
63.3667,60,0.7432
63.4,60,0.58785
63.4333,60,0.40681
63.4667,60,0.20799
63.5,60,8.3006e-05
63.5333,60,-0.20783
63.5667,60,-0.40666
63.6,60,-0.58772
63.6333,60,-0.74309
63.6667,60,-0.86598
63.7,60,-0.95103
63.7333,60,-0.99451
63.7667,60,-0.99453
63.8,60,-0.95108
63.8333,60,-0.86607
63.8667,60,-0.7432
63.9,60,-0.58785
63.9333,60,-0.40681
63.9667,60,-0.20799
64,60,-8.3659e-05
64.0333,60,0.20783
64.0667,60,0.40666
64.1,60,0.58772
64.1333,60,0.74309
64.1667,60,0.86598
64.2,60,0.95103
64.2333,60,0.99451
64.2667,60,0.99453
64.3,60,0.95108
64.3333,60,0.86607
64.3667,60,0.7432
64.4,60,0.58785
64.4333,60,0.40681
64.4667,60,0.20799
64.5,60,8.4313e-05
64.5333,60,-0.20783
64.5667,60,-0.40666
64.6,60,-0.58772
64.6333,60,-0.74309
64.6667,60,-0.86598
64.7,60,-0.95103
64.7333,60,-0.99451
64.7667,60,-0.99453
64.8,60,-0.95108
64.8333,60,-0.86607
64.8667,60,-0.7432
64.9,60,-0.58785
64.9333,60,-0.40681
64.9667,60,-0.20799
65,60,-8.4967e-05
65.0333,60,0.20783
65.0667,60,0.40666
65.1,60,0.58772
65.1333,60,0.74309
65.1667,60,0.86598
65.2,60,0.95103
65.2333,60,0.99451
65.2667,60,0.99453
65.3,60,0.95108
65.3333,60,0.86607
65.3667,60,0.7432
65.4,60,0.58785
65.4333,60,0.40681
65.4667,60,0.208
65.5,60,8.562e-05
65.5333,60,-0.20783
65.5667,60,-0.40666
65.6,60,-0.58772
65.6333,60,-0.74309
65.6667,60,-0.86598
65.7,60,-0.95103
65.7333,60,-0.99451
65.7667,60,-0.99453
65.8,60,-0.95108
65.8333,60,-0.86607
65.8667,60,-0.7432
65.9,60,-0.58785
65.9333,60,-0.40682
65.9667,60,-0.208
66,60,-8.6274e-05
66.0333,60,0.20783
66.0667,60,0.40666
66.1,60,0.58772
66.1333,60,0.74309
66.1667,60,0.86598
66.2,60,0.95103
66.2333,60,0.99451
66.2667,60,0.99453
66.3,60,0.95108
66.3333,60,0.86607
66.3667,60,0.7432
66.4,60,0.58786
66.4333,60,0.40682
66.4667,60,0.208
66.5,60,8.6927e-05
66.5333,60,-0.20783
66.5667,60,-0.40666
66.6,60,-0.58771
66.6333,60,-0.74309
66.6667,60,-0.86598
66.7,60,-0.95103
66.7333,60,-0.99451
66.7667,60,-0.99453
66.8,60,-0.95108
66.8333,60,-0.86607
66.8667,60,-0.7432
66.9,60,-0.58786
66.9333,60,-0.40682
66.9667,60,-0.208
67,60,-8.7581e-05
67.0333,60,0.20783
67.0667,60,0.40666
67.1,60,0.58771
67.1333,60,0.74309
67.1667,60,0.86598
67.2,60,0.95103
67.2333,60,0.99451
67.2667,60,0.99453
67.3,60,0.95108
67.3333,60,0.86607
67.3667,60,0.7432
67.4,60,0.58786
67.4333,60,0.40682
67.4667,60,0.208
67.5,60,8.8235e-05
67.5333,60,-0.20783
67.5667,60,-0.40666
67.6,60,-0.58771
67.6333,60,-0.74309
67.6667,60,-0.86598
67.7,60,-0.95103
67.7333,60,-0.99451
67.7667,60,-0.99453
67.8,60,-0.95108
67.8333,60,-0.86607
67.8667,60,-0.7432
67.9,60,-0.58786
67.9333,60,-0.40682
67.9667,60,-0.208
68,60,-8.8888e-05
68.0333,60,0.20782
68.0667,60,0.40666
68.1,60,0.58771
68.1333,60,0.74309
68.1667,60,0.86598
68.2,60,0.95103
68.2333,60,0.99451
68.2667,60,0.99453
68.3,60,0.95108
68.3333,60,0.86607
68.3667,60,0.7432
68.4,60,0.58786
68.4333,60,0.40682
68.4667,60,0.208
68.5,60,8.9542e-05
68.5333,60,-0.20782
68.5667,60,-0.40665
68.6,60,-0.58771
68.6333,60,-0.74308
68.6667,60,-0.86598
68.7,60,-0.95103
68.7333,60,-0.99451
68.7667,60,-0.99453
68.8,60,-0.95108
68.8333,60,-0.86607
68.8667,60,-0.74321
68.9,60,-0.58786
68.9333,60,-0.40682
68.9667,60,-0.208
69,60,-9.0195e-05
69.0333,60,0.20782
69.0667,60,0.40665
69.1,60,0.58771
69.1333,60,0.74308
69.1667,60,0.86598
69.2,60,0.95103
69.2333,60,0.99451
69.2667,60,0.99453
69.3,60,0.95108
69.3333,60,0.86607
69.3667,60,0.74321
69.4,60,0.58786
69.4333,60,0.40682
69.4667,60,0.208
69.5,60,9.0849e-05
69.5333,60,-0.20782
69.5667,60,-0.40665
69.6,60,-0.58771
69.6333,60,-0.74308
69.6667,60,-0.86598
69.7,60,-0.95103
69.7333,60,-0.99451
69.7667,60,-0.99453
69.8,60,-0.95108
69.8333,60,-0.86607
69.8667,60,-0.74321
69.9,60,-0.58786
69.9333,60,-0.40682
69.9667,60,-0.208
70,60,-9.1503e-05
70.0333,60,0.20782
70.0667,60,0.40665
70.1,60,0.58771
70.1333,60,0.74308
70.1667,60,0.86598
70.2,60,0.95103
70.2333,60,0.99451
70.2667,60,0.99453
70.3,60,0.95108
70.3333,60,0.86607
70.3667,60,0.74321
70.4,60,0.58786
70.4333,60,0.40682
70.4667,60,0.208
70.5,60,9.2156e-05
70.5333,60,-0.20782
70.5667,60,-0.40665
70.6,60,-0.58771
70.6333,60,-0.74308
70.6667,60,-0.86598
70.7,60,-0.95103
70.7333,60,-0.99451
70.7667,60,-0.99453
70.8,60,-0.95109
70.8333,60,-0.86607
70.8667,60,-0.74321
70.9,60,-0.58786
70.9333,60,-0.40682
70.9667,60,-0.208
71,60,-9.281e-05
71.0333,60,0.20782
71.0667,60,0.40665
71.1,60,0.58771
71.1333,60,0.74308
71.1667,60,0.86598
71.2,60,0.95103
71.2333,60,0.99451
71.2667,60,0.99453
71.3,60,0.95109
71.3333,60,0.86607
71.3667,60,0.74321
71.4,60,0.58786
71.4333,60,0.40682
71.4667,60,0.208
71.5,60,9.3463e-05
71.5333,60,-0.20782
71.5667,60,-0.40665
71.6,60,-0.58771
71.6333,60,-0.74308
71.6667,60,-0.86598
71.7,60,-0.95103
71.7333,60,-0.99451
71.7667,60,-0.99453
71.8,60,-0.95109
71.8333,60,-0.86607
71.8667,60,-0.74321
71.9,60,-0.58786
71.9333,60,-0.40682
71.9667,60,-0.208
72,60,-9.4117e-05
72.0333,60,0.20782
72.0667,60,0.40665
72.1,60,0.58771
72.1333,60,0.74308
72.1667,60,0.86598
72.2,60,0.95103
72.2333,60,0.99451
72.2667,60,0.99453
72.3,60,0.95109
72.3333,60,0.86607
72.3667,60,0.74321
72.4,60,0.58786
72.4333,60,0.40682
72.4667,60,0.208
72.5,60,9.4771e-05
72.5333,60,-0.20782
72.5667,60,-0.40665
72.6,60,-0.58771
72.6333,60,-0.74308
72.6667,60,-0.86598
72.7,60,-0.95103
72.7333,60,-0.99451
72.7667,60,-0.99453
72.8,60,-0.95109
72.8333,60,-0.86607
72.8667,60,-0.74321
72.9,60,-0.58786
72.9333,60,-0.40682
72.9667,60,-0.208
73,60,-9.5424e-05
73.0333,60,0.20782
73.0667,60,0.40665
73.1,60,0.58771
73.1333,60,0.74308
73.1667,60,0.86598
73.2,60,0.95103
73.2333,60,0.99451
73.2667,60,0.99453
73.3,60,0.95109
73.3333,60,0.86607
73.3667,60,0.74321
73.4,60,0.58786
73.4333,60,0.40682
73.4667,60,0.20801
73.5,60,9.6078e-05
73.5333,60,-0.20782
73.5667,60,-0.40665
73.6,60,-0.58771
73.6333,60,-0.74308
73.6667,60,-0.86598
73.7,60,-0.95103
73.7333,60,-0.99451
73.7667,60,-0.99453
73.8,60,-0.95109
73.8333,60,-0.86607
73.8667,60,-0.74321
73.9,60,-0.58786
73.9333,60,-0.40682
73.9667,60,-0.20801
74,60,-9.6731e-05
74.0333,60,0.20782
74.0667,60,0.40665
74.1,60,0.58771
74.1333,60,0.74308
74.1667,60,0.86598
74.2,60,0.95103
74.2333,60,0.99451
74.2667,60,0.99453
74.3,60,0.95109
74.3333,60,0.86607
74.3667,60,0.74321
74.4,60,0.58786
74.4333,60,0.40683
74.4667,60,0.20801
74.5,60,9.7385e-05
74.5333,60,-0.20782
74.5667,60,-0.40665
74.6,60,-0.58771
74.6333,60,-0.74308
74.6667,60,-0.86598
74.7,60,-0.95103
74.7333,60,-0.99451
74.7667,60,-0.99453
74.8,60,-0.95109
74.8333,60,-0.86607
74.8667,60,-0.74321
74.9,60,-0.58786
74.9333,60,-0.40683
74.9667,60,-0.20801
75,60,-9.8038e-05
75.0333,60,0.20782
75.0667,60,0.40665
75.1,60,0.58771
75.1333,60,0.74308
75.1667,60,0.86598
75.2,60,0.95103
75.2333,60,0.99451
75.2667,60,0.99453
75.3,60,0.95109
75.3333,60,0.86607
75.3667,60,0.74321
75.4,60,0.58786
75.4333,60,0.40683
75.4667,60,0.20801
75.5,60,9.8692e-05
75.5333,60,-0.20782
75.5667,60,-0.40665
75.6,60,-0.58771
75.6333,60,-0.74308
75.6667,60,-0.86598
75.7,60,-0.95103
75.7333,60,-0.99451
75.7667,60,-0.99453
75.8,60,-0.95109
75.8333,60,-0.86607
75.8667,60,-0.74321
75.9,60,-0.58787
75.9333,60,-0.40683
75.9667,60,-0.20801
76,60,-9.9346e-05
76.0333,60,0.20781
76.0667,60,0.40665
76.1,60,0.5877
76.1333,60,0.74308
76.1667,60,0.86598
76.2,60,0.95103
76.2333,60,0.99451
76.2667,60,0.99453
76.3,60,0.95109
76.3333,60,0.86608
76.3667,60,0.74321
76.4,60,0.58787
76.4333,60,0.40683
76.4667,60,0.20801
76.5,60,9.9999e-05
76.5333,60,-0.20781
76.5667,60,-0.40665
76.6,60,-0.5877
76.6333,60,-0.74308
76.6667,60,-0.86598
76.7,60,-0.95103
76.7333,60,-0.99451
76.7667,60,-0.99453
76.8,60,-0.95109
76.8333,60,-0.86608
76.8667,60,-0.74321
76.9,60,-0.58787
76.9333,60,-0.40683
76.9667,60,-0.20801
77,60,-0.00010065
77.0333,60,0.20781
77.0667,60,0.40664
77.1,60,0.5877
77.1333,60,0.74308
77.1667,60,0.86597
77.2,60,0.95103
77.2333,60,0.99451
77.2667,60,0.99453
77.3,60,0.95109
77.3333,60,0.86608
77.3667,60,0.74321
77.4,60,0.58787
77.4333,60,0.40683
77.4667,60,0.20801
77.5,60,0.00010131
77.5333,60,-0.20781
77.5667,60,-0.40664
77.6,60,-0.5877
77.6333,60,-0.74308
77.6667,60,-0.86597
77.7,60,-0.95103
77.7333,60,-0.99451
77.7667,60,-0.99453
77.8,60,-0.95109
77.8333,60,-0.86608
77.8667,60,-0.74321
77.9,60,-0.58787
77.9333,60,-0.40683
77.9667,60,-0.20801
78,60,-0.00010196
78.0333,60,0.20781
78.0667,60,0.40664
78.1,60,0.5877
78.1333,60,0.74308
78.1667,60,0.86597
78.2,60,0.95102
78.2333,60,0.99451
78.2667,60,0.99453
78.3,60,0.95109
78.3333,60,0.86608
78.3667,60,0.74321
78.4,60,0.58787
78.4333,60,0.40683
78.4667,60,0.20801
78.5,60,0.00010261
78.5333,60,-0.20781
78.5667,60,-0.40664
78.6,60,-0.5877
78.6333,60,-0.74308
78.6667,60,-0.86597
78.7,60,-0.95102
78.7333,60,-0.99451
78.7667,60,-0.99453
78.8,60,-0.95109
78.8333,60,-0.86608
78.8667,60,-0.74321
78.9,60,-0.58787
78.9333,60,-0.40683
78.9667,60,-0.20801
79,60,-0.00010327
79.0333,60,0.20781
79.0667,60,0.40664
79.1,60,0.5877
79.1333,60,0.74308
79.1667,60,0.86597
79.2,60,0.95102
79.2333,60,0.99451
79.2667,60,0.99453
79.3,60,0.95109
79.3333,60,0.86608
79.3667,60,0.74321
79.4,60,0.58787
79.4333,60,0.40683
79.4667,60,0.20801
79.5,60,0.00010392
79.5333,60,-0.20781
79.5667,60,-0.40664
79.6,60,-0.5877
79.6333,60,-0.74308
79.6667,60,-0.86597
79.7,60,-0.95102
79.7333,60,-0.99451
79.7667,60,-0.99453
79.8,60,-0.95109
79.8333,60,-0.86608
79.8667,60,-0.74321
79.9,60,-0.58787
79.9333,60,-0.40683
79.9667,60,-0.20801
80,60,-0.00010457
80.0333,60,0.20781
80.0667,60,0.40664
80.1,60,0.5877
80.1333,60,0.74307
80.1667,60,0.86597
80.2,60,0.95102
80.2333,60,0.99451
80.2667,60,0.99453
80.3,60,0.95109
80.3333,60,0.86608
80.3667,60,0.74322
80.4,60,0.58787
80.4333,60,0.40683
80.4667,60,0.20801
80.5,60,0.00010523
80.5333,60,-0.20781
80.5667,60,-0.40664
80.6,60,-0.5877
80.6333,60,-0.74307
80.6667,60,-0.86597
80.7,60,-0.95102
80.7333,60,-0.99451
80.7667,60,-0.99453
80.8,60,-0.95109
80.8333,60,-0.86608
80.8667,60,-0.74322
80.9,60,-0.58787
80.9333,60,-0.40683
80.9667,60,-0.20802
81,60,-0.00010588
81.0333,60,0.20781
81.0667,60,0.40664
81.1,60,0.5877
81.1333,60,0.74307
81.1667,60,0.86597
81.2,60,0.95102
81.2333,60,0.99451
81.2667,60,0.99453
81.3,60,0.95109
81.3333,60,0.86608
81.3667,60,0.74322
81.4,60,0.58787
81.4333,60,0.40683
81.4667,60,0.20802
81.5,60,0.00010654
81.5333,60,-0.20781
81.5667,60,-0.40664
81.6,60,-0.5877
81.6333,60,-0.74307
81.6667,60,-0.86597
81.7,60,-0.95102
81.7333,60,-0.99451
81.7667,60,-0.99453
81.8,60,-0.95109
81.8333,60,-0.86608
81.8667,60,-0.74322
81.9,60,-0.58787
81.9333,60,-0.40683
81.9667,60,-0.20802
82,60,-0.00010719
82.0333,60,0.20781
82.0667,60,0.40664
82.1,60,0.5877
82.1333,60,0.74307
82.1667,60,0.86597
82.2,60,0.95102
82.2333,60,0.99451
82.2667,60,0.99453
82.3,60,0.95109
82.3333,60,0.86608
82.3667,60,0.74322
82.4,60,0.58787
82.4333,60,0.40684
82.4667,60,0.20802
82.5,60,0.00010784
82.5333,60,-0.20781
82.5667,60,-0.40664
82.6,60,-0.5877
82.6333,60,-0.74307
82.6667,60,-0.86597
82.7,60,-0.95102
82.7333,60,-0.99451
82.7667,60,-0.99453
82.8,60,-0.95109
82.8333,60,-0.86608
82.8667,60,-0.74322
82.9,60,-0.58787
82.9333,60,-0.40684
82.9667,60,-0.20802
83,60,-0.0001085
83.0333,60,0.20781
83.0667,60,0.40664
83.1,60,0.5877
83.1333,60,0.74307
83.1667,60,0.86597
83.2,60,0.95102
83.2333,60,0.99451
83.2667,60,0.99453
83.3,60,0.95109
83.3333,60,0.86608
83.3667,60,0.74322
83.4,60,0.58787
83.4333,60,0.40684
83.4667,60,0.20802
83.5,60,0.00010915
83.5333,60,-0.2078
83.5667,60,-0.40664
83.6,60,-0.5877
83.6333,60,-0.74307
83.6667,60,-0.86597
83.7,60,-0.95102
83.7333,60,-0.99451
83.7667,60,-0.99453
83.8,60,-0.95109
83.8333,60,-0.86608
83.8667,60,-0.74322
83.9,60,-0.58787
83.9333,60,-0.40684
83.9667,60,-0.20802
84,60,-0.0001098
84.0333,60,0.2078
84.0667,60,0.40664
84.1,60,0.5877
84.1333,60,0.74307
84.1667,60,0.86597
84.2,60,0.95102
84.2333,60,0.99451
84.2667,60,0.99453
84.3,60,0.95109
84.3333,60,0.86608
84.3667,60,0.74322
84.4,60,0.58787
84.4333,60,0.40684
84.4667,60,0.20802
84.5,60,0.00011046
84.5333,60,-0.2078
84.5667,60,-0.40664
84.6,60,-0.5877
84.6333,60,-0.74307
84.6667,60,-0.86597
84.7,60,-0.95102
84.7333,60,-0.99451
84.7667,60,-0.99453
84.8,60,-0.95109
84.8333,60,-0.86608
84.8667,60,-0.74322
84.9,60,-0.58788
84.9333,60,-0.40684
84.9667,60,-0.20802
85,60,-0.00011111
85.0333,60,0.2078
85.0667,60,0.40664
85.1,60,0.5877
85.1333,60,0.74307
85.1667,60,0.86597
85.2,60,0.95102
85.2333,60,0.99451
85.2667,60,0.99453
85.3,60,0.95109
85.3333,60,0.86608
85.3667,60,0.74322
85.4,60,0.58788
85.4333,60,0.40684
85.4667,60,0.20802
85.5,60,0.00011176
85.5333,60,-0.2078
85.5667,60,-0.40663
85.6,60,-0.58769
85.6333,60,-0.74307
85.6667,60,-0.86597
85.7,60,-0.95102
85.7333,60,-0.99451
85.7667,60,-0.99453
85.8,60,-0.95109
85.8333,60,-0.86608
85.8667,60,-0.74322
85.9,60,-0.58788
85.9333,60,-0.40684
85.9667,60,-0.20802
86,60,-0.00011242
86.0333,60,0.2078
86.0667,60,0.40663
86.1,60,0.58769
86.1333,60,0.74307
86.1667,60,0.86597
86.2,60,0.95102
86.2333,60,0.99451
86.2667,60,0.99453
86.3,60,0.95109
86.3333,60,0.86608
86.3667,60,0.74322
86.4,60,0.58788
86.4333,60,0.40684
86.4667,60,0.20802
86.5,60,0.00011307
86.5333,60,-0.2078
86.5667,60,-0.40663
86.6,60,-0.58769
86.6333,60,-0.74307
86.6667,60,-0.86597
86.7,60,-0.95102
86.7333,60,-0.99451
86.7667,60,-0.99453
86.8,60,-0.95109
86.8333,60,-0.86608
86.8667,60,-0.74322
86.9,60,-0.58788
86.9333,60,-0.40684
86.9667,60,-0.20802
87,60,-0.00011372
87.0333,60,0.2078
87.0667,60,0.40663
87.1,60,0.58769
87.1333,60,0.74307
87.1667,60,0.86597
87.2,60,0.95102
87.2333,60,0.99451
87.2667,60,0.99453
87.3,60,0.95109
87.3333,60,0.86608
87.3667,60,0.74322
87.4,60,0.58788
87.4333,60,0.40684
87.4667,60,0.20802
87.5,60,0.00011438
87.5333,60,-0.2078
87.5667,60,-0.40663
87.6,60,-0.58769
87.6333,60,-0.74307
87.6667,60,-0.86597
87.7,60,-0.95102
87.7333,60,-0.99451
87.7667,60,-0.99453
87.8,60,-0.95109
87.8333,60,-0.86608
87.8667,60,-0.74322
87.9,60,-0.58788
87.9333,60,-0.40684
87.9667,60,-0.20802
88,60,-0.00011503
88.0333,60,0.2078
88.0667,60,0.40663
88.1,60,0.58769
88.1333,60,0.74307
88.1667,60,0.86597
88.2,60,0.95102
88.2333,60,0.99451
88.2667,60,0.99453
88.3,60,0.95109
88.3333,60,0.86608
88.3667,60,0.74322
88.4,60,0.58788
88.4333,60,0.40684
88.4667,60,0.20802
88.5,60,0.00011569
88.5333,60,-0.2078
88.5667,60,-0.40663
88.6,60,-0.58769
88.6333,60,-0.74307
88.6667,60,-0.86597
88.7,60,-0.95102
88.7333,60,-0.99451
88.7667,60,-0.99453
88.8,60,-0.95109
88.8333,60,-0.86608
88.8667,60,-0.74322
88.9,60,-0.58788
88.9333,60,-0.40684
88.9667,60,-0.20803
89,60,-0.00011634
89.0333,60,0.2078
89.0667,60,0.40663
89.1,60,0.58769
89.1333,60,0.74307
89.1667,60,0.86597
89.2,60,0.95102
89.2333,60,0.99451
89.2667,60,0.99453
89.3,60,0.95109
89.3333,60,0.86608
89.3667,60,0.74322
89.4,60,0.58788
89.4333,60,0.40684
89.4667,60,0.20803
89.5,60,0.00011699
89.5333,60,-0.2078
89.5667,60,-0.40663
89.6,60,-0.58769
89.6333,60,-0.74307
89.6667,60,-0.86597
89.7,60,-0.95102
89.7333,60,-0.99451
89.7667,60,-0.99453
89.8,60,-0.95109
89.8333,60,-0.86608
89.8667,60,-0.74322
89.9,60,-0.58788
89.9333,60,-0.40684
89.9667,60,-0.20803
90,60,-0.00011765
90.0333,60,0.2078
90.0667,60,0.40663
90.1,60,0.58769
90.1333,60,0.74307
90.1667,60,0.86597
90.2,60,0.95102
90.2333,60,0.99451
90.2667,60,0.99453
90.3,60,0.95109
90.3333,60,0.86608
90.3667,60,0.74322
90.4,60,0.58788
90.4333,60,0.40684
90.4667,60,0.20803
90.5,60,0.0001183
90.5333,60,-0.2078
90.5667,60,-0.40663
90.6,60,-0.58769
90.6333,60,-0.74307
90.6667,60,-0.86597
90.7,60,-0.95102
90.7333,60,-0.99451
90.7667,60,-0.99453
90.8,60,-0.95109
90.8333,60,-0.86608
90.8667,60,-0.74322
90.9,60,-0.58788
90.9333,60,-0.40685
90.9667,60,-0.20803
91,60,-0.00011895
91.0333,60,0.2078
91.0667,60,0.40663
91.1,60,0.58769
91.1333,60,0.74307
91.1667,60,0.86597
91.2,60,0.95102
91.2333,60,0.99451
91.2667,60,0.99453
91.3,60,0.95109
91.3333,60,0.86609
91.3667,60,0.74322
91.4,60,0.58788
91.4333,60,0.40685
91.4667,60,0.20803
91.5,60,0.00011961
91.5333,60,-0.20779
91.5667,60,-0.40663
91.6,60,-0.58769
91.6333,60,-0.74306
91.6667,60,-0.86597
91.7,60,-0.95102
91.7333,60,-0.99451
91.7667,60,-0.99453
91.8,60,-0.95109
91.8333,60,-0.86609
91.8667,60,-0.74323
91.9,60,-0.58788
91.9333,60,-0.40685
91.9667,60,-0.20803
92,60,-0.00012026
92.0333,60,0.20779
92.0667,60,0.40663
92.1,60,0.58769
92.1333,60,0.74306
92.1667,60,0.86597
92.2,60,0.95102
92.2333,60,0.99451
92.2667,60,0.99453
92.3,60,0.95109
92.3333,60,0.86609
92.3667,60,0.74323
92.4,60,0.58788
92.4333,60,0.40685
92.4667,60,0.20803
92.5,60,0.00012091
92.5333,60,-0.20779
92.5667,60,-0.40663
92.6,60,-0.58769
92.6333,60,-0.74306
92.6667,60,-0.86596
92.7,60,-0.95102
92.7333,60,-0.99451
92.7667,60,-0.99453
92.8,60,-0.95109
92.8333,60,-0.86609
92.8667,60,-0.74323
92.9,60,-0.58788
92.9333,60,-0.40685
92.9667,60,-0.20803
93,60,-0.00012157
93.0333,60,0.20779
93.0667,60,0.40663
93.1,60,0.58769
93.1333,60,0.74306
93.1667,60,0.86596
93.2,60,0.95102
93.2333,60,0.99451
93.2667,60,0.99453
93.3,60,0.95109
93.3333,60,0.86609
93.3667,60,0.74323
93.4,60,0.58788
93.4333,60,0.40685
93.4667,60,0.20803
93.5,60,0.00012222
93.5333,60,-0.20779
93.5667,60,-0.40662
93.6,60,-0.58769
93.6333,60,-0.74306
93.6667,60,-0.86596
93.7,60,-0.95102
93.7333,60,-0.99451
93.7667,60,-0.99453
93.8,60,-0.95109
93.8333,60,-0.86609
93.8667,60,-0.74323
93.9,60,-0.58788
93.9333,60,-0.40685
93.9667,60,-0.20803
94,60,-0.00012287
94.0333,60,0.20779
94.0667,60,0.40662
94.1,60,0.58769
94.1333,60,0.74306
94.1667,60,0.86596
94.2,60,0.95102
94.2333,60,0.99451
94.2667,60,0.99453
94.3,60,0.95109
94.3333,60,0.86609
94.3667,60,0.74323
94.4,60,0.58789
94.4333,60,0.40685
94.4667,60,0.20803
94.5,60,0.00012353
94.5333,60,-0.20779
94.5667,60,-0.40662
94.6,60,-0.58769
94.6333,60,-0.74306
94.6667,60,-0.86596
94.7,60,-0.95102
94.7333,60,-0.99451
94.7667,60,-0.99453
94.8,60,-0.95109
94.8333,60,-0.86609
94.8667,60,-0.74323
94.9,60,-0.58789
94.9333,60,-0.40685
94.9667,60,-0.20803
95,60,-0.00012418
95.0333,60,0.20779
95.0667,60,0.40662
95.1,60,0.58768
95.1333,60,0.74306
95.1667,60,0.86596
95.2,60,0.95102
95.2333,60,0.99451
95.2667,60,0.99453
95.3,60,0.9511
95.3333,60,0.86609
95.3667,60,0.74323
95.4,60,0.58789
95.4333,60,0.40685
95.4667,60,0.20803
95.5,60,0.00012484
95.5333,60,-0.20779
95.5667,60,-0.40662
95.6,60,-0.58768
95.6333,60,-0.74306
95.6667,60,-0.86596
95.7,60,-0.95102
95.7333,60,-0.99451
95.7667,60,-0.99453
95.8,60,-0.9511
95.8333,60,-0.86609
95.8667,60,-0.74323
95.9,60,-0.58789
95.9333,60,-0.40685
95.9667,60,-0.20803
96,60,-0.00012549
96.0333,60,0.20779
96.0667,60,0.40662
96.1,60,0.58768
96.1333,60,0.74306
96.1667,60,0.86596
96.2,60,0.95102
96.2333,60,0.99451
96.2667,60,0.99454
96.3,60,0.9511
96.3333,60,0.86609
96.3667,60,0.74323
96.4,60,0.58789
96.4333,60,0.40685
96.4667,60,0.20804
96.5,60,0.00012614
96.5333,60,-0.20779
96.5667,60,-0.40662
96.6,60,-0.58768
96.6333,60,-0.74306
96.6667,60,-0.86596
96.7,60,-0.95102
96.7333,60,-0.99451
96.7667,60,-0.99454
96.8,60,-0.9511
96.8333,60,-0.86609
96.8667,60,-0.74323
96.9,60,-0.58789
96.9333,60,-0.40685
96.9667,60,-0.20804
97,60,-0.0001268
97.0333,60,0.20779
97.0667,60,0.40662
97.1,60,0.58768
97.1333,60,0.74306
97.1667,60,0.86596
97.2,60,0.95102
97.2333,60,0.99451
97.2667,60,0.99454
97.3,60,0.9511
97.3333,60,0.86609
97.3667,60,0.74323
97.4,60,0.58789
97.4333,60,0.40685
97.4667,60,0.20804
97.5,60,0.00012745
97.5333,60,-0.20779
97.5667,60,-0.40662
97.6,60,-0.58768
97.6333,60,-0.74306
97.6667,60,-0.86596
97.7,60,-0.95102
97.7333,60,-0.99451
97.7667,60,-0.99454
97.8,60,-0.9511
97.8333,60,-0.86609
97.8667,60,-0.74323
97.9,60,-0.58789
97.9333,60,-0.40685
97.9667,60,-0.20804
98,60,-0.0001281
98.0333,60,0.20779
98.0667,60,0.40662
98.1,60,0.58768
98.1333,60,0.74306
98.1667,60,0.86596
98.2,60,0.95102
98.2333,60,0.99451
98.2667,60,0.99454
98.3,60,0.9511
98.3333,60,0.86609
98.3667,60,0.74323
98.4,60,0.58789
98.4333,60,0.40685
98.4667,60,0.20804
98.5,60,0.00012876
98.5333,60,-0.20779
98.5667,60,-0.40662
98.6,60,-0.58768
98.6333,60,-0.74306
98.6667,60,-0.86596
98.7,60,-0.95102
98.7333,60,-0.99451
98.7667,60,-0.99454
98.8,60,-0.9511
98.8333,60,-0.86609
98.8667,60,-0.74323
98.9,60,-0.58789
98.9333,60,-0.40685
98.9667,60,-0.20804
99,60,-0.00012941
99.0333,60,0.20779
99.0667,60,0.40662
99.1,60,0.58768
99.1333,60,0.74306
99.1667,60,0.86596
99.2,60,0.95102
99.2333,60,0.99451
99.2667,60,0.99454
99.3,60,0.9511
99.3333,60,0.86609
99.3667,60,0.74323
99.4,60,0.58789
99.4333,60,0.40686
99.4667,60,0.20804
99.5,60,0.00013006
99.5333,60,-0.20778
99.5667,60,-0.40662
99.6,60,-0.58768
99.6333,60,-0.74306
99.6667,60,-0.86596
99.7,60,-0.95102
99.7333,60,-0.99451
99.7667,60,-0.99454
99.8,60,-0.9511
99.8333,60,-0.86609
99.8667,60,-0.74323
99.9,60,-0.58789
99.9333,60,-0.40686
99.9667,60,-0.20804
100,60,-0.00013072
100.0333,60,0.20778
100.0667,60,0.40662
100.1,60,0.58768
100.1333,60,0.74306
100.1667,60,0.86596
100.2,60,0.95102
100.2333,60,0.99451
100.2667,60,0.99454
100.3,60,0.9511
100.3333,60,0.86609
100.3667,60,0.74323
100.4,60,0.58789
100.4333,60,0.40686
100.4667,60,0.20804
100.5,60,0.00013137
100.5333,60,-0.20778
100.5667,60,-0.40662
100.6,60,-0.58768
100.6333,60,-0.74306
100.6667,60,-0.86596
100.7,60,-0.95102
100.7333,60,-0.99451
100.7667,60,-0.99454
100.8,60,-0.9511
100.8333,60,-0.86609
100.8667,60,-0.74323
100.9,60,-0.58789
100.9333,60,-0.40686
100.9667,60,-0.20804
101,60,-0.00013203
101.0333,60,0.20778
101.0667,60,0.40662
101.1,60,0.58768
101.1333,60,0.74306
101.1667,60,0.86596
101.2,60,0.95102
101.2333,60,0.99451
101.2667,60,0.99454
101.3,60,0.9511
101.3333,60,0.86609
101.3667,60,0.74323
101.4,60,0.58789
101.4333,60,0.40686
101.4667,60,0.20804
101.5,60,0.00013268
101.5333,60,-0.20778
101.5667,60,-0.40662
101.6,60,-0.58768
101.6333,60,-0.74306
101.6667,60,-0.86596
101.7,60,-0.95102
101.7333,60,-0.99451
101.7667,60,-0.99454
101.8,60,-0.9511
101.8333,60,-0.86609
101.8667,60,-0.74323
101.9,60,-0.58789
101.9333,60,-0.40686
101.9667,60,-0.20804
102,60,-0.00013333
102.0333,60,0.20778
102.0667,60,0.40661
102.1,60,0.58768
102.1333,60,0.74306
102.1667,60,0.86596
102.2,60,0.95102
102.2333,60,0.99451
102.2667,60,0.99454
102.3,60,0.9511
102.3333,60,0.86609
102.3667,60,0.74323
102.4,60,0.58789
102.4333,60,0.40686
102.4667,60,0.20804
102.5,60,0.00013399
102.5333,60,-0.20778
102.5667,60,-0.40661
102.6,60,-0.58768
102.6333,60,-0.74306
102.6667,60,-0.86596
102.7,60,-0.95102
102.7333,60,-0.99451
102.7667,60,-0.99454
102.8,60,-0.9511
102.8333,60,-0.86609
102.8667,60,-0.74323
102.9,60,-0.58789
102.9333,60,-0.40686
102.9667,60,-0.20804
103,60,-0.00013464
103.0333,60,0.20778
103.0667,60,0.40661
103.1,60,0.58768
103.1333,60,0.74305
103.1667,60,0.86596
103.2,60,0.95101
103.2333,60,0.99451
103.2667,60,0.99454
103.3,60,0.9511
103.3333,60,0.86609
103.3667,60,0.74324
103.4,60,0.58789
103.4333,60,0.40686
103.4667,60,0.20804
103.5,60,0.00013529
103.5333,60,-0.20778
103.5667,60,-0.40661
103.6,60,-0.58768
103.6333,60,-0.74305
103.6667,60,-0.86596
103.7,60,-0.95101
103.7333,60,-0.99451
103.7667,60,-0.99454
103.8,60,-0.9511
103.8333,60,-0.86609
103.8667,60,-0.74324
103.9,60,-0.5879
103.9333,60,-0.40686
103.9667,60,-0.20804
104,60,-0.00013595
104.0333,60,0.20778
104.0667,60,0.40661
104.1,60,0.58768
104.1333,60,0.74305
104.1667,60,0.86596
104.2,60,0.95101
104.2333,60,0.99451
104.2667,60,0.99454
104.3,60,0.9511
104.3333,60,0.86609
104.3667,60,0.74324
104.4,60,0.5879
104.4333,60,0.40686
104.4667,60,0.20805
104.5,60,0.0001366
104.5333,60,-0.20778
104.5667,60,-0.40661
104.6,60,-0.58767
104.6333,60,-0.74305
104.6667,60,-0.86596
104.7,60,-0.95101
104.7333,60,-0.99451
104.7667,60,-0.99454
104.8,60,-0.9511
104.8333,60,-0.86609
104.8667,60,-0.74324
104.9,60,-0.5879
104.9333,60,-0.40686
104.9667,60,-0.20805
105,60,-0.00013725
105.0333,60,0.20778
105.0667,60,0.40661
105.1,60,0.58767
105.1333,60,0.74305
105.1667,60,0.86596
105.2,60,0.95101
105.2333,60,0.99451
105.2667,60,0.99454
105.3,60,0.9511
105.3333,60,0.86609
105.3667,60,0.74324
105.4,60,0.5879
105.4333,60,0.40686
105.4667,60,0.20805
105.5,60,0.00013791
105.5333,60,-0.20778
105.5667,60,-0.40661
105.6,60,-0.58767
105.6333,60,-0.74305
105.6667,60,-0.86596
105.7,60,-0.95101
105.7333,60,-0.99451
105.7667,60,-0.99454
105.8,60,-0.9511
105.8333,60,-0.86609
105.8667,60,-0.74324
105.9,60,-0.5879
105.9333,60,-0.40686
105.9667,60,-0.20805
106,60,-0.00013856
106.0333,60,0.20778
106.0667,60,0.40661
106.1,60,0.58767
106.1333,60,0.74305
106.1667,60,0.86596
106.2,60,0.95101
106.2333,60,0.99451
106.2667,60,0.99454
106.3,60,0.9511
106.3333,60,0.86609
106.3667,60,0.74324
106.4,60,0.5879
106.4333,60,0.40686
106.4667,60,0.20805
106.5,60,0.00013921
106.5333,60,-0.20778
106.5667,60,-0.40661
106.6,60,-0.58767
106.6333,60,-0.74305
106.6667,60,-0.86596
106.7,60,-0.95101
106.7333,60,-0.99451
106.7667,60,-0.99454
106.8,60,-0.9511
106.8333,60,-0.8661
106.8667,60,-0.74324
106.9,60,-0.5879
106.9333,60,-0.40686
106.9667,60,-0.20805
107,60,-0.00013987
107.0333,60,0.20777
107.0667,60,0.40661
107.1,60,0.58767
107.1333,60,0.74305
107.1667,60,0.86596
107.2,60,0.95101
107.2333,60,0.99451
107.2667,60,0.99454
107.3,60,0.9511
107.3333,60,0.8661
107.3667,60,0.74324
107.4,60,0.5879
107.4333,60,0.40686
107.4667,60,0.20805
107.5,60,0.00014052
107.5333,60,-0.20777
107.5667,60,-0.40661
107.6,60,-0.58767
107.6333,60,-0.74305
107.6667,60,-0.86596
107.7,60,-0.95101
107.7333,60,-0.99451
107.7667,60,-0.99454
107.8,60,-0.9511
107.8333,60,-0.8661
107.8667,60,-0.74324
107.9,60,-0.5879
107.9333,60,-0.40687
107.9667,60,-0.20805
108,60,-0.00014118
108.0333,60,0.20777
108.0667,60,0.40661
108.1,60,0.58767
108.1333,60,0.74305
108.1667,60,0.86595
108.2,60,0.95101
108.2333,60,0.99451
108.2667,60,0.99454
108.3,60,0.9511
108.3333,60,0.8661
108.3667,60,0.74324
108.4,60,0.5879
108.4333,60,0.40687
108.4667,60,0.20805
108.5,60,0.00014183
108.5333,60,-0.20777
108.5667,60,-0.40661
108.6,60,-0.58767
108.6333,60,-0.74305
108.6667,60,-0.86595
108.7,60,-0.95101
108.7333,60,-0.99451
108.7667,60,-0.99454
108.8,60,-0.9511
108.8333,60,-0.8661
108.8667,60,-0.74324
108.9,60,-0.5879
108.9333,60,-0.40687
108.9667,60,-0.20805
109,60,-0.00014248
109.0333,60,0.20777
109.0667,60,0.40661
109.1,60,0.58767
109.1333,60,0.74305
109.1667,60,0.86595
109.2,60,0.95101
109.2333,60,0.99451
109.2667,60,0.99454
109.3,60,0.9511
109.3333,60,0.8661
109.3667,60,0.74324
109.4,60,0.5879
109.4333,60,0.40687
109.4667,60,0.20805
109.5,60,0.00014314
109.5333,60,-0.20777
109.5667,60,-0.40661
109.6,60,-0.58767
109.6333,60,-0.74305
109.6667,60,-0.86595
109.7,60,-0.95101
109.7333,60,-0.99451
109.7667,60,-0.99454
109.8,60,-0.9511
109.8333,60,-0.8661
109.8667,60,-0.74324
109.9,60,-0.5879
109.9333,60,-0.40687
109.9667,60,-0.20805
110,60,-0.00014379
110.0333,60,0.20777
110.0667,60,0.40661
110.1,60,0.58767
110.1333,60,0.74305
110.1667,60,0.86595
110.2,60,0.95101
110.2333,60,0.99451
110.2667,60,0.99454
110.3,60,0.9511
110.3333,60,0.8661
110.3667,60,0.74324
110.4,60,0.5879
110.4333,60,0.40687
110.4667,60,0.20805
110.5,60,0.00014444
110.5333,60,-0.20777
110.5667,60,-0.4066
110.6,60,-0.58767
110.6333,60,-0.74305
110.6667,60,-0.86595
110.7,60,-0.95101
110.7333,60,-0.99451
110.7667,60,-0.99454
110.8,60,-0.9511
110.8333,60,-0.8661
110.8667,60,-0.74324
110.9,60,-0.5879
110.9333,60,-0.40687
110.9667,60,-0.20805
111,60,-0.0001451
111.0333,60,0.20777
111.0667,60,0.4066
111.1,60,0.58767
111.1333,60,0.74305
111.1667,60,0.86595
111.2,60,0.95101
111.2333,60,0.99451
111.2667,60,0.99454
111.3,60,0.9511
111.3333,60,0.8661
111.3667,60,0.74324
111.4,60,0.5879
111.4333,60,0.40687
111.4667,60,0.20805
111.5,60,0.00014575
111.5333,60,-0.20777
111.5667,60,-0.4066
111.6,60,-0.58767
111.6333,60,-0.74305
111.6667,60,-0.86595
111.7,60,-0.95101
111.7333,60,-0.99451
111.7667,60,-0.99454
111.8,60,-0.9511
111.8333,60,-0.8661
111.8667,60,-0.74324
111.9,60,-0.5879
111.9333,60,-0.40687
111.9667,60,-0.20805
112,60,-0.0001464
112.0333,60,0.20777
112.0667,60,0.4066
112.1,60,0.58767
112.1333,60,0.74305
112.1667,60,0.86595
112.2,60,0.95101
112.2333,60,0.99451
112.2667,60,0.99454
112.3,60,0.9511
112.3333,60,0.8661
112.3667,60,0.74324
112.4,60,0.5879
112.4333,60,0.40687
112.4667,60,0.20806
112.5,60,0.00014706
112.5333,60,-0.20777
112.5667,60,-0.4066
112.6,60,-0.58767
112.6333,60,-0.74305
112.6667,60,-0.86595
112.7,60,-0.95101
112.7333,60,-0.99451
112.7667,60,-0.99454
112.8,60,-0.9511
112.8333,60,-0.8661
112.8667,60,-0.74324
112.9,60,-0.5879
112.9333,60,-0.40687
112.9667,60,-0.20806
113,60,-0.00014771
113.0333,60,0.20777
113.0667,60,0.4066
113.1,60,0.58767
113.1333,60,0.74305
113.1667,60,0.86595
113.2,60,0.95101
113.2333,60,0.99451
113.2667,60,0.99454
113.3,60,0.9511
113.3333,60,0.8661
113.3667,60,0.74324
113.4,60,0.58791
113.4333,60,0.40687
113.4667,60,0.20806
113.5,60,0.00014836
113.5333,60,-0.20777
113.5667,60,-0.4066
113.6,60,-0.58767
113.6333,60,-0.74305
113.6667,60,-0.86595
113.7,60,-0.95101
113.7333,60,-0.99451
113.7667,60,-0.99454
113.8,60,-0.9511
113.8333,60,-0.8661
113.8667,60,-0.74324
113.9,60,-0.58791
113.9333,60,-0.40687
113.9667,60,-0.20806
114,60,-0.00014902
114.0333,60,0.20777
114.0667,60,0.4066
114.1,60,0.58766
114.1333,60,0.74304
114.1667,60,0.86595
114.2,60,0.95101
114.2333,60,0.99451
114.2667,60,0.99454
114.3,60,0.9511
114.3333,60,0.8661
114.3667,60,0.74324
114.4,60,0.58791
114.4333,60,0.40687
114.4667,60,0.20806
114.5,60,0.00014967
114.5333,60,-0.20777
114.5667,60,-0.4066
114.6,60,-0.58766
114.6333,60,-0.74304
114.6667,60,-0.86595
114.7,60,-0.95101
114.7333,60,-0.99451
114.7667,60,-0.99454
114.8,60,-0.9511
114.8333,60,-0.8661
114.8667,60,-0.74325
114.9,60,-0.58791
114.9333,60,-0.40687
114.9667,60,-0.20806
115,60,-0.00015033
115.0333,60,0.20776
115.0667,60,0.4066
115.1,60,0.58766
115.1333,60,0.74304
115.1667,60,0.86595
115.2,60,0.95101
115.2333,60,0.99451
115.2667,60,0.99454
115.3,60,0.9511
115.3333,60,0.8661
115.3667,60,0.74325
115.4,60,0.58791
115.4333,60,0.40687
115.4667,60,0.20806
115.5,60,0.00015098
115.5333,60,-0.20776
115.5667,60,-0.4066
115.6,60,-0.58766
115.6333,60,-0.74304
115.6667,60,-0.86595
115.7,60,-0.95101
115.7333,60,-0.99451
115.7667,60,-0.99454
115.8,60,-0.9511
115.8333,60,-0.8661
115.8667,60,-0.74325
115.9,60,-0.58791
115.9333,60,-0.40688
115.9667,60,-0.20806
116,60,-0.00015163
116.0333,60,0.20776
116.0667,60,0.4066
116.1,60,0.58766
116.1333,60,0.74304
116.1667,60,0.86595
116.2,60,0.95101
116.2333,60,0.99451
116.2667,60,0.99454
116.3,60,0.9511
116.3333,60,0.8661
116.3667,60,0.74325
116.4,60,0.58791
116.4333,60,0.40688
116.4667,60,0.20806
116.5,60,0.00015229
116.5333,60,-0.20776
116.5667,60,-0.4066
116.6,60,-0.58766
116.6333,60,-0.74304
116.6667,60,-0.86595
116.7,60,-0.95101
116.7333,60,-0.99451
116.7667,60,-0.99454
116.8,60,-0.9511
116.8333,60,-0.8661
116.8667,60,-0.74325
116.9,60,-0.58791
116.9333,60,-0.40688
116.9667,60,-0.20806
117,60,-0.00015294
117.0333,60,0.20776
117.0667,60,0.4066
117.1,60,0.58766
117.1333,60,0.74304
117.1667,60,0.86595
117.2,60,0.95101
117.2333,60,0.99451
117.2667,60,0.99454
117.3,60,0.9511
117.3333,60,0.8661
117.3667,60,0.74325
117.4,60,0.58791
117.4333,60,0.40688
117.4667,60,0.20806
117.5,60,0.00015359
117.5333,60,-0.20776
117.5667,60,-0.4066
117.6,60,-0.58766
117.6333,60,-0.74304
117.6667,60,-0.86595
117.7,60,-0.95101
117.7333,60,-0.99451
117.7667,60,-0.99454
117.8,60,-0.9511
117.8333,60,-0.8661
117.8667,60,-0.74325
117.9,60,-0.58791
117.9333,60,-0.40688
117.9667,60,-0.20806
118,60,-0.00015425
118.0333,60,0.20776
118.0667,60,0.4066
118.1,60,0.58766
118.1333,60,0.74304
118.1667,60,0.86595
118.2,60,0.95101
118.2333,60,0.99451
118.2667,60,0.99454
118.3,60,0.9511
118.3333,60,0.8661
118.3667,60,0.74325
118.4,60,0.58791
118.4333,60,0.40688
118.4667,60,0.20806
118.5,60,0.0001549
118.5333,60,-0.20776
118.5667,60,-0.4066
118.6,60,-0.58766
118.6333,60,-0.74304
118.6667,60,-0.86595
118.7,60,-0.95101
118.7333,60,-0.99451
118.7667,60,-0.99454
118.8,60,-0.9511
118.8333,60,-0.8661
118.8667,60,-0.74325
118.9,60,-0.58791
118.9333,60,-0.40688
118.9667,60,-0.20806
119,60,-0.00015555
119.0333,60,0.20776
119.0667,60,0.40659
119.1,60,0.58766
119.1333,60,0.74304
119.1667,60,0.86595
119.2,60,0.95101
119.2333,60,0.99451
119.2667,60,0.99454
119.3,60,0.9511
119.3333,60,0.8661
119.3667,60,0.74325
119.4,60,0.58791
119.4333,60,0.40688
119.4667,60,0.20806
119.5,60,0.00015621
119.5333,60,-0.20776
119.5667,60,-0.40659
119.6,60,-0.58766
119.6333,60,-0.74304
119.6667,60,-0.86595
119.7,60,-0.95101
119.7333,60,-0.99451
119.7667,60,-0.99454
119.8,60,-0.9511
119.8333,60,-0.8661
119.8667,60,-0.74325
119.9,60,-0.58791
119.9333,60,-0.40688
119.9667,60,-0.20807
120,60,-0.00015686
120.0333,60,0.20776
120.0667,60,0.40659
120.1,60,0.58766
120.1333,60,0.74304
120.1667,60,0.86595
120.2,60,0.95101
120.2333,60,0.99451
120.2667,60,0.99454
120.3,60,0.95111
120.3333,60,0.8661
120.3667,60,0.74325
120.4,60,0.58791
120.4333,60,0.40688
120.4667,60,0.20807
120.5,60,0.00015752
120.5333,60,-0.20776
120.5667,60,-0.40659
120.6,60,-0.58766
120.6333,60,-0.74304
120.6667,60,-0.86595
120.7,60,-0.95101
120.7333,60,-0.99451
120.7667,60,-0.99454
120.8,60,-0.95111
120.8333,60,-0.8661
120.8667,60,-0.74325
120.9,60,-0.58791
120.9333,60,-0.40688
120.9667,60,-0.20807
121,60,-0.00015817
121.0333,60,0.20776
121.0667,60,0.40659
121.1,60,0.58766
121.1333,60,0.74304
121.1667,60,0.86595
121.2,60,0.95101
121.2333,60,0.99451
121.2667,60,0.99454
121.3,60,0.95111
121.3333,60,0.8661
121.3667,60,0.74325
121.4,60,0.58791
121.4333,60,0.40688
121.4667,60,0.20807
121.5,60,0.00015882
121.5333,60,-0.20776
121.5667,60,-0.40659
121.6,60,-0.58766
121.6333,60,-0.74304
121.6667,60,-0.86595
121.7,60,-0.95101
121.7333,60,-0.99451
121.7667,60,-0.99454
121.8,60,-0.95111
121.8333,60,-0.86611
121.8667,60,-0.74325
121.9,60,-0.58791
121.9333,60,-0.40688
121.9667,60,-0.20807
122,60,-0.00015948
122.0333,60,0.20776
122.0667,60,0.40659
122.1,60,0.58766
122.1333,60,0.74304
122.1667,60,0.86595
122.2,60,0.95101
122.2333,60,0.99451
122.2667,60,0.99454
122.3,60,0.95111
122.3333,60,0.86611
122.3667,60,0.74325
122.4,60,0.58791
122.4333,60,0.40688
122.4667,60,0.20807
122.5,60,0.00016013
122.5333,60,-0.20776
122.5667,60,-0.40659
122.6,60,-0.58766
122.6333,60,-0.74304
122.6667,60,-0.86595
122.7,60,-0.95101
122.7333,60,-0.99451
122.7667,60,-0.99454
122.8,60,-0.95111
122.8333,60,-0.86611
122.8667,60,-0.74325
122.9,60,-0.58792
122.9333,60,-0.40688
122.9667,60,-0.20807
123,60,-0.00016078
123.0333,60,0.20775
123.0667,60,0.40659
123.1,60,0.58766
123.1333,60,0.74304
123.1667,60,0.86594
123.2,60,0.95101
123.2333,60,0.99451
123.2667,60,0.99454
123.3,60,0.95111
123.3333,60,0.86611
123.3667,60,0.74325
123.4,60,0.58792
123.4333,60,0.40688
123.4667,60,0.20807
123.5,60,0.00016144
123.5333,60,-0.20775
123.5667,60,-0.40659
123.6,60,-0.58765
123.6333,60,-0.74304
123.6667,60,-0.86594
123.7,60,-0.95101
123.7333,60,-0.9945
123.7667,60,-0.99454
123.8,60,-0.95111
123.8333,60,-0.86611
123.8667,60,-0.74325
123.9,60,-0.58792
123.9333,60,-0.40688
123.9667,60,-0.20807
124,60,-0.00016209
124.0333,60,0.20775
124.0667,60,0.40659
124.1,60,0.58765
124.1333,60,0.74304
124.1667,60,0.86594
124.2,60,0.95101
124.2333,60,0.9945
124.2667,60,0.99454
124.3,60,0.95111
124.3333,60,0.86611
124.3667,60,0.74325
124.4,60,0.58792
124.4333,60,0.40689
124.4667,60,0.20807
124.5,60,0.00016274
124.5333,60,-0.20775
124.5667,60,-0.40659
124.6,60,-0.58765
124.6333,60,-0.74304
124.6667,60,-0.86594
124.7,60,-0.95101
124.7333,60,-0.9945
124.7667,60,-0.99454
124.8,60,-0.95111
124.8333,60,-0.86611
124.8667,60,-0.74325
124.9,60,-0.58792
124.9333,60,-0.40689
124.9667,60,-0.20807
125,60,-0.0001634
125.0333,60,0.20775
125.0667,60,0.40659
125.1,60,0.58765
125.1333,60,0.74304
125.1667,60,0.86594
125.2,60,0.95101
125.2333,60,0.9945
125.2667,60,0.99454
125.3,60,0.95111
125.3333,60,0.86611
125.3667,60,0.74325
125.4,60,0.58792
125.4333,60,0.40689
125.4667,60,0.20807
125.5,60,0.00016405
125.5333,60,-0.20775
125.5667,60,-0.40659
125.6,60,-0.58765
125.6333,60,-0.74303
125.6667,60,-0.86594
125.7,60,-0.95101
125.7333,60,-0.9945
125.7667,60,-0.99454
125.8,60,-0.95111
125.8333,60,-0.86611
125.8667,60,-0.74325
125.9,60,-0.58792
125.9333,60,-0.40689
125.9667,60,-0.20807
126,60,-0.0001647
126.0333,60,0.20775
126.0667,60,0.40659
126.1,60,0.58765
126.1333,60,0.74303
126.1667,60,0.86594
126.2,60,0.95101
126.2333,60,0.9945
126.2667,60,0.99454
126.3,60,0.95111
126.3333,60,0.86611
126.3667,60,0.74326
126.4,60,0.58792
126.4333,60,0.40689
126.4667,60,0.20807
126.5,60,0.00016536
126.5333,60,-0.20775
126.5667,60,-0.40659
126.6,60,-0.58765
126.6333,60,-0.74303
126.6667,60,-0.86594
126.7,60,-0.95101
126.7333,60,-0.9945
126.7667,60,-0.99454
126.8,60,-0.95111
126.8333,60,-0.86611
126.8667,60,-0.74326
126.9,60,-0.58792
126.9333,60,-0.40689
126.9667,60,-0.20807
127,60,-0.00016601
127.0333,60,0.20775
127.0667,60,0.40658
127.1,60,0.58765
127.1333,60,0.74303
127.1667,60,0.86594
127.2,60,0.95101
127.2333,60,0.9945
127.2667,60,0.99454
127.3,60,0.95111
127.3333,60,0.86611
127.3667,60,0.74326
127.4,60,0.58792
127.4333,60,0.40689
127.4667,60,0.20807
127.5,60,0.00016667
127.5333,60,-0.20775
127.5667,60,-0.40658
127.6,60,-0.58765
127.6333,60,-0.74303
127.6667,60,-0.86594
127.7,60,-0.951
127.7333,60,-0.9945
127.7667,60,-0.99454
127.8,60,-0.95111
127.8333,60,-0.86611
127.8667,60,-0.74326
127.9,60,-0.58792
127.9333,60,-0.40689
127.9667,60,-0.20808
128,60,-0.00016732
128.0333,60,0.20775
128.0667,60,0.40658
128.1,60,0.58765
128.1333,60,0.74303
128.1667,60,0.86594
128.2,60,0.951
128.2333,60,0.9945
128.2667,60,0.99454
128.3,60,0.95111
128.3333,60,0.86611
128.3667,60,0.74326
128.4,60,0.58792
128.4333,60,0.40689
128.4667,60,0.20808
128.5,60,0.00016797
128.5333,60,-0.20775
128.5667,60,-0.40658
128.6,60,-0.58765
128.6333,60,-0.74303
128.6667,60,-0.86594
128.7,60,-0.951
128.7333,60,-0.9945
128.7667,60,-0.99454
128.8,60,-0.95111
128.8333,60,-0.86611
128.8667,60,-0.74326
128.9,60,-0.58792
128.9333,60,-0.40689
128.9667,60,-0.20808
129,60,-0.00016863
129.0333,60,0.20775
129.0667,60,0.40658
129.1,60,0.58765
129.1333,60,0.74303
129.1667,60,0.86594
129.2,60,0.951
129.2333,60,0.9945
129.2667,60,0.99454
129.3,60,0.95111
129.3333,60,0.86611
129.3667,60,0.74326
129.4,60,0.58792
129.4333,60,0.40689
129.4667,60,0.20808
129.5,60,0.00016928
129.5333,60,-0.20775
129.5667,60,-0.40658
129.6,60,-0.58765
129.6333,60,-0.74303
129.6667,60,-0.86594
129.7,60,-0.951
129.7333,60,-0.9945
129.7667,60,-0.99454
129.8,60,-0.95111
129.8333,60,-0.86611
129.8667,60,-0.74326
129.9,60,-0.58792
129.9333,60,-0.40689
129.9667,60,-0.20808
130,60,-0.00016993
130.0333,60,0.20775
130.0667,60,0.40658
130.1,60,0.58765
130.1333,60,0.74303
130.1667,60,0.86594
130.2,60,0.951
130.2333,60,0.9945
130.2667,60,0.99454
130.3,60,0.95111
130.3333,60,0.86611
130.3667,60,0.74326
130.4,60,0.58792
130.4333,60,0.40689
130.4667,60,0.20808
130.5,60,0.00017059
130.5333,60,-0.20774
130.5667,60,-0.40658
130.6,60,-0.58765
130.6333,60,-0.74303
130.6667,60,-0.86594
130.7,60,-0.951
130.7333,60,-0.9945
130.7667,60,-0.99454
130.8,60,-0.95111
130.8333,60,-0.86611
130.8667,60,-0.74326
130.9,60,-0.58792
130.9333,60,-0.40689
130.9667,60,-0.20808
131,60,-0.00017124
131.0333,60,0.20774
131.0667,60,0.40658
131.1,60,0.58765
131.1333,60,0.74303
131.1667,60,0.86594
131.2,60,0.951
131.2333,60,0.9945
131.2667,60,0.99454
131.3,60,0.95111
131.3333,60,0.86611
131.3667,60,0.74326
131.4,60,0.58792
131.4333,60,0.40689
131.4667,60,0.20808
131.5,60,0.00017189
131.5333,60,-0.20774
131.5667,60,-0.40658
131.6,60,-0.58765
131.6333,60,-0.74303
131.6667,60,-0.86594
131.7,60,-0.951
131.7333,60,-0.9945
131.7667,60,-0.99454
131.8,60,-0.95111
131.8333,60,-0.86611
131.8667,60,-0.74326
131.9,60,-0.58792
131.9333,60,-0.40689
131.9667,60,-0.20808
132,60,-0.00017255
132.0333,60,0.20774
132.0667,60,0.40658
132.1,60,0.58765
132.1333,60,0.74303
132.1667,60,0.86594
132.2,60,0.951
132.2333,60,0.9945
132.2667,60,0.99454
132.3,60,0.95111
132.3333,60,0.86611
132.3667,60,0.74326
132.4,60,0.58793
132.4333,60,0.40689
132.4667,60,0.20808
132.5,60,0.0001732
132.5333,60,-0.20774
132.5667,60,-0.40658
132.6,60,-0.58765
132.6333,60,-0.74303
132.6667,60,-0.86594
132.7,60,-0.951
132.7333,60,-0.9945
132.7667,60,-0.99454
132.8,60,-0.95111
132.8333,60,-0.86611
132.8667,60,-0.74326
132.9,60,-0.58793
132.9333,60,-0.4069
132.9667,60,-0.20808
133,60,-0.00017385
133.0333,60,0.20774
133.0667,60,0.40658
133.1,60,0.58764
133.1333,60,0.74303
133.1667,60,0.86594
133.2,60,0.951
133.2333,60,0.9945
133.2667,60,0.99454
133.3,60,0.95111
133.3333,60,0.86611
133.3667,60,0.74326
133.4,60,0.58793
133.4333,60,0.4069
133.4667,60,0.20808
133.5,60,0.00017451
133.5333,60,-0.20774
133.5667,60,-0.40658
133.6,60,-0.58764
133.6333,60,-0.74303
133.6667,60,-0.86594
133.7,60,-0.951
133.7333,60,-0.9945
133.7667,60,-0.99454
133.8,60,-0.95111
133.8333,60,-0.86611
133.8667,60,-0.74326
133.9,60,-0.58793
133.9333,60,-0.4069
133.9667,60,-0.20808
134,60,-0.00017516
134.0333,60,0.20774
134.0667,60,0.40658
134.1,60,0.58764
134.1333,60,0.74303
134.1667,60,0.86594
134.2,60,0.951
134.2333,60,0.9945
134.2667,60,0.99454
134.3,60,0.95111
134.3333,60,0.86611
134.3667,60,0.74326
134.4,60,0.58793
134.4333,60,0.4069
134.4667,60,0.20808
134.5,60,0.00017582
134.5333,60,-0.20774
134.5667,60,-0.40658
134.6,60,-0.58764
134.6333,60,-0.74303
134.6667,60,-0.86594
134.7,60,-0.951
134.7333,60,-0.9945
134.7667,60,-0.99454
134.8,60,-0.95111
134.8333,60,-0.86611
134.8667,60,-0.74326
134.9,60,-0.58793
134.9333,60,-0.4069
134.9667,60,-0.20808
135,60,-0.00017647
135.0333,60,0.20774
135.0667,60,0.40658
135.1,60,0.58764
135.1333,60,0.74303
135.1667,60,0.86594
135.2,60,0.951
135.2333,60,0.9945
135.2667,60,0.99454
135.3,60,0.95111
135.3333,60,0.86611
135.3667,60,0.74326
135.4,60,0.58793
135.4333,60,0.4069
135.4667,60,0.20808
135.5,60,0.00017712
135.5333,60,-0.20774
135.5667,60,-0.40657
135.6,60,-0.58764
135.6333,60,-0.74303
135.6667,60,-0.86594
135.7,60,-0.951
135.7333,60,-0.9945
135.7667,60,-0.99454
135.8,60,-0.95111
135.8333,60,-0.86611
135.8667,60,-0.74326
135.9,60,-0.58793
135.9333,60,-0.4069
135.9667,60,-0.20809
136,60,-0.00017778
136.0333,60,0.20774
136.0667,60,0.40657
136.1,60,0.58764
136.1333,60,0.74303
136.1667,60,0.86594
136.2,60,0.951
136.2333,60,0.9945
136.2667,60,0.99454
136.3,60,0.95111
136.3333,60,0.86611
136.3667,60,0.74326
136.4,60,0.58793
136.4333,60,0.4069
136.4667,60,0.20809
136.5,60,0.00017843
136.5333,60,-0.20774
136.5667,60,-0.40657
136.6,60,-0.58764
136.6333,60,-0.74303
136.6667,60,-0.86594
136.7,60,-0.951
136.7333,60,-0.9945
136.7667,60,-0.99454
136.8,60,-0.95111
136.8333,60,-0.86611
136.8667,60,-0.74326
136.9,60,-0.58793
136.9333,60,-0.4069
136.9667,60,-0.20809
137,60,-0.00017908
137.0333,60,0.20774
137.0667,60,0.40657
137.1,60,0.58764
137.1333,60,0.74302
137.1667,60,0.86594
137.2,60,0.951
137.2333,60,0.9945
137.2667,60,0.99454
137.3,60,0.95111
137.3333,60,0.86612
137.3667,60,0.74326
137.4,60,0.58793
137.4333,60,0.4069
137.4667,60,0.20809
137.5,60,0.00017974
137.5333,60,-0.20774
137.5667,60,-0.40657
137.6,60,-0.58764
137.6333,60,-0.74302
137.6667,60,-0.86594
137.7,60,-0.951
137.7333,60,-0.9945
137.7667,60,-0.99454
137.8,60,-0.95111
137.8333,60,-0.86612
137.8667,60,-0.74327
137.9,60,-0.58793
137.9333,60,-0.4069
137.9667,60,-0.20809
138,60,-0.00018039
138.0333,60,0.20774
138.0667,60,0.40657
138.1,60,0.58764
138.1333,60,0.74302
138.1667,60,0.86594
138.2,60,0.951
138.2333,60,0.9945
138.2667,60,0.99454
138.3,60,0.95111
138.3333,60,0.86612
138.3667,60,0.74327
138.4,60,0.58793
138.4333,60,0.4069
138.4667,60,0.20809
138.5,60,0.00018104
138.5333,60,-0.20773
138.5667,60,-0.40657
138.6,60,-0.58764
138.6333,60,-0.74302
138.6667,60,-0.86593
138.7,60,-0.951
138.7333,60,-0.9945
138.7667,60,-0.99454
138.8,60,-0.95111
138.8333,60,-0.86612
138.8667,60,-0.74327
138.9,60,-0.58793
138.9333,60,-0.4069
138.9667,60,-0.20809
139,60,-0.0001817
139.0333,60,0.20773
139.0667,60,0.40657
139.1,60,0.58764
139.1333,60,0.74302
139.1667,60,0.86593
139.2,60,0.951
139.2333,60,0.9945
139.2667,60,0.99454
139.3,60,0.95111
139.3333,60,0.86612
139.3667,60,0.74327
139.4,60,0.58793
139.4333,60,0.4069
139.4667,60,0.20809
139.5,60,0.00018235
139.5333,60,-0.20773
139.5667,60,-0.40657
139.6,60,-0.58764
139.6333,60,-0.74302
139.6667,60,-0.86593
139.7,60,-0.951
139.7333,60,-0.9945
139.7667,60,-0.99454
139.8,60,-0.95111
139.8333,60,-0.86612
139.8667,60,-0.74327
139.9,60,-0.58793
139.9333,60,-0.4069
139.9667,60,-0.20809
140,60,-0.00018301
140.0333,60,0.20773
140.0667,60,0.40657
140.1,60,0.58764
140.1333,60,0.74302
140.1667,60,0.86593
140.2,60,0.951
140.2333,60,0.9945
140.2667,60,0.99454
140.3,60,0.95111
140.3333,60,0.86612
140.3667,60,0.74327
140.4,60,0.58793
140.4333,60,0.4069
140.4667,60,0.20809
140.5,60,0.00018366
140.5333,60,-0.20773
140.5667,60,-0.40657
140.6,60,-0.58764
140.6333,60,-0.74302
140.6667,60,-0.86593
140.7,60,-0.951
140.7333,60,-0.9945
140.7667,60,-0.99454
140.8,60,-0.95111
140.8333,60,-0.86612
140.8667,60,-0.74327
140.9,60,-0.58793
140.9333,60,-0.4069
140.9667,60,-0.20809
141,60,-0.00018431
141.0333,60,0.20773
141.0667,60,0.40657
141.1,60,0.58764
141.1333,60,0.74302
141.1667,60,0.86593
141.2,60,0.951
141.2333,60,0.9945
141.2667,60,0.99454
141.3,60,0.95111
141.3333,60,0.86612
141.3667,60,0.74327
141.4,60,0.58793
141.4333,60,0.40691
141.4667,60,0.20809
141.5,60,0.00018497
141.5333,60,-0.20773
141.5667,60,-0.40657
141.6,60,-0.58764
141.6333,60,-0.74302
141.6667,60,-0.86593
141.7,60,-0.951
141.7333,60,-0.9945
141.7667,60,-0.99454
141.8,60,-0.95111
141.8333,60,-0.86612
141.8667,60,-0.74327
141.9,60,-0.58794
141.9333,60,-0.40691
141.9667,60,-0.20809
142,60,-0.00018562
142.0333,60,0.20773
142.0667,60,0.40657
142.1,60,0.58763
142.1333,60,0.74302
142.1667,60,0.86593
142.2,60,0.951
142.2333,60,0.9945
142.2667,60,0.99454
142.3,60,0.95111
142.3333,60,0.86612
142.3667,60,0.74327
142.4,60,0.58794
142.4333,60,0.40691
142.4667,60,0.20809
142.5,60,0.00018627
142.5333,60,-0.20773
142.5667,60,-0.40657
142.6,60,-0.58763
142.6333,60,-0.74302
142.6667,60,-0.86593
142.7,60,-0.951
142.7333,60,-0.9945
142.7667,60,-0.99454
142.8,60,-0.95111
142.8333,60,-0.86612
142.8667,60,-0.74327
142.9,60,-0.58794
142.9333,60,-0.40691
142.9667,60,-0.20809
143,60,-0.00018693
143.0333,60,0.20773
143.0667,60,0.40657
143.1,60,0.58763
143.1333,60,0.74302
143.1667,60,0.86593
143.2,60,0.951
143.2333,60,0.9945
143.2667,60,0.99454
143.3,60,0.95111
143.3333,60,0.86612
143.3667,60,0.74327
143.4,60,0.58794
143.4333,60,0.40691
143.4667,60,0.2081
143.5,60,0.00018758
143.5333,60,-0.20773
143.5667,60,-0.40657
143.6,60,-0.58763
143.6333,60,-0.74302
143.6667,60,-0.86593
143.7,60,-0.951
143.7333,60,-0.9945
143.7667,60,-0.99454
143.8,60,-0.95111
143.8333,60,-0.86612
143.8667,60,-0.74327
143.9,60,-0.58794
143.9333,60,-0.40691
143.9667,60,-0.2081
144,60,-0.00018823
144.0333,60,0.20773
144.0667,60,0.40656
144.1,60,0.58763
144.1333,60,0.74302
144.1667,60,0.86593
144.2,60,0.951
144.2333,60,0.9945
144.2667,60,0.99454
144.3,60,0.95111
144.3333,60,0.86612
144.3667,60,0.74327
144.4,60,0.58794
144.4333,60,0.40691
144.4667,60,0.2081
144.5,60,0.00018889
144.5333,60,-0.20773
144.5667,60,-0.40656
144.6,60,-0.58763
144.6333,60,-0.74302
144.6667,60,-0.86593
144.7,60,-0.951
144.7333,60,-0.9945
144.7667,60,-0.99454
144.8,60,-0.95111
144.8333,60,-0.86612
144.8667,60,-0.74327
144.9,60,-0.58794
144.9333,60,-0.40691
144.9667,60,-0.2081
145,60,-0.00018954
145.0333,60,0.20773
145.0667,60,0.40656
145.1,60,0.58763
145.1333,60,0.74302
145.1667,60,0.86593
145.2,60,0.951
145.2333,60,0.9945
145.2667,60,0.99454
145.3,60,0.95112
145.3333,60,0.86612
145.3667,60,0.74327
145.4,60,0.58794
145.4333,60,0.40691
145.4667,60,0.2081
145.5,60,0.00019019
145.5333,60,-0.20773
145.5667,60,-0.40656
145.6,60,-0.58763
145.6333,60,-0.74302
145.6667,60,-0.86593
145.7,60,-0.951
145.7333,60,-0.9945
145.7667,60,-0.99454
145.8,60,-0.95112
145.8333,60,-0.86612
145.8667,60,-0.74327
145.9,60,-0.58794
145.9333,60,-0.40691
145.9667,60,-0.2081
146,60,-0.00019085
146.0333,60,0.20772
146.0667,60,0.40656
146.1,60,0.58763
146.1333,60,0.74302
146.1667,60,0.86593
146.2,60,0.951
146.2333,60,0.9945
146.2667,60,0.99454
146.3,60,0.95112
146.3333,60,0.86612
146.3667,60,0.74327
146.4,60,0.58794
146.4333,60,0.40691
146.4667,60,0.2081
146.5,60,0.0001915
146.5333,60,-0.20772
146.5667,60,-0.40656
146.6,60,-0.58763
146.6333,60,-0.74302
146.6667,60,-0.86593
146.7,60,-0.951
146.7333,60,-0.9945
146.7667,60,-0.99454
146.8,60,-0.95112
146.8333,60,-0.86612
146.8667,60,-0.74327
146.9,60,-0.58794
146.9333,60,-0.40691
146.9667,60,-0.2081
147,60,-0.00019216
147.0333,60,0.20772
147.0667,60,0.40656
147.1,60,0.58763
147.1333,60,0.74302
147.1667,60,0.86593
147.2,60,0.951
147.2333,60,0.9945
147.2667,60,0.99454
147.3,60,0.95112
147.3333,60,0.86612
147.3667,60,0.74327
147.4,60,0.58794
147.4333,60,0.40691
147.4667,60,0.2081
147.5,60,0.00019281
147.5333,60,-0.20772
147.5667,60,-0.40656
147.6,60,-0.58763
147.6333,60,-0.74302
147.6667,60,-0.86593
147.7,60,-0.951
147.7333,60,-0.9945
147.7667,60,-0.99454
147.8,60,-0.95112
147.8333,60,-0.86612
147.8667,60,-0.74327
147.9,60,-0.58794
147.9333,60,-0.40691
147.9667,60,-0.2081
148,60,-0.00019346
148.0333,60,0.20772
148.0667,60,0.40656
148.1,60,0.58763
148.1333,60,0.74302
148.1667,60,0.86593
148.2,60,0.951
148.2333,60,0.9945
148.2667,60,0.99454
148.3,60,0.95112
148.3333,60,0.86612
148.3667,60,0.74327
148.4,60,0.58794
148.4333,60,0.40691
148.4667,60,0.2081
148.5,60,0.00019412
148.5333,60,-0.20772
148.5667,60,-0.40656
148.6,60,-0.58763
148.6333,60,-0.74301
148.6667,60,-0.86593
148.7,60,-0.951
148.7333,60,-0.9945
148.7667,60,-0.99454
148.8,60,-0.95112
148.8333,60,-0.86612
148.8667,60,-0.74328
148.9,60,-0.58794
148.9333,60,-0.40691
148.9667,60,-0.2081
149,60,-0.00019477
149.0333,60,0.20772
149.0667,60,0.40656
149.1,60,0.58763
149.1333,60,0.74301
149.1667,60,0.86593
149.2,60,0.951
149.2333,60,0.9945
149.2667,60,0.99454
149.3,60,0.95112
149.3333,60,0.86612
149.3667,60,0.74328
149.4,60,0.58794
149.4333,60,0.40692
149.4667,60,0.2081
149.5,60,0.00019542
149.5333,60,-0.20772
149.5667,60,-0.40656
149.6,60,-0.58763
149.6333,60,-0.74301
149.6667,60,-0.86593
149.7,60,-0.951
149.7333,60,-0.9945
149.7667,60,-0.99454
149.8,60,-0.95112
149.8333,60,-0.86612
149.8667,60,-0.74328
149.9,60,-0.58794
149.9333,60,-0.40692
149.9667,60,-0.2081
150,60,-0.00019608
150.0333,60,0.20772
150.0667,60,0.40656
150.1,60,0.58763
150.1333,60,0.74301
150.1667,60,0.86593
150.2,60,0.951
150.2333,60,0.9945
150.2667,60,0.99454
150.3,60,0.95112
150.3333,60,0.86612
150.3667,60,0.74328
150.4,60,0.58794
150.4333,60,0.40692
150.4667,60,0.2081
150.5,60,0.00019673
150.5333,60,-0.20772
150.5667,60,-0.40656
150.6,60,-0.58763
150.6333,60,-0.74301
150.6667,60,-0.86593
150.7,60,-0.951
150.7333,60,-0.9945
150.7667,60,-0.99454
150.8,60,-0.95112
150.8333,60,-0.86612
150.8667,60,-0.74328
150.9,60,-0.58794
150.9333,60,-0.40692
150.9667,60,-0.2081
151,60,-0.00019738
151.0333,60,0.20772
151.0667,60,0.40656
151.1,60,0.58763
151.1333,60,0.74301
151.1667,60,0.86593
151.2,60,0.951
151.2333,60,0.9945
151.2667,60,0.99454
151.3,60,0.95112
151.3333,60,0.86612
151.3667,60,0.74328
151.4,60,0.58795
151.4333,60,0.40692
151.4667,60,0.20811
151.5,60,0.00019804
151.5333,60,-0.20772
151.5667,60,-0.40656
151.6,60,-0.58762
151.6333,60,-0.74301
151.6667,60,-0.86593
151.7,60,-0.951
151.7333,60,-0.9945
151.7667,60,-0.99454
151.8,60,-0.95112
151.8333,60,-0.86612
151.8667,60,-0.74328
151.9,60,-0.58795
151.9333,60,-0.40692
151.9667,60,-0.20811
152,60,-0.00019869
152.0333,60,0.20772
152.0667,60,0.40656
152.1,60,0.58762
152.1333,60,0.74301
152.1667,60,0.86593
152.2,60,0.951
152.2333,60,0.9945
152.2667,60,0.99454
152.3,60,0.95112
152.3333,60,0.86612
152.3667,60,0.74328
152.4,60,0.58795
152.4333,60,0.40692
152.4667,60,0.20811
152.5,60,0.00019934
152.5333,60,-0.20772
152.5667,60,-0.40655
152.6,60,-0.58762
152.6333,60,-0.74301
152.6667,60,-0.86593
152.7,60,-0.95099
152.7333,60,-0.9945
152.7667,60,-0.99454
152.8,60,-0.95112
152.8333,60,-0.86613
152.8667,60,-0.74328
152.9,60,-0.58795
152.9333,60,-0.40692
152.9667,60,-0.20811
153,60,-0.0002
153.0333,60,0.20772
153.0667,60,0.40655
153.1,60,0.58762
153.1333,60,0.74301
153.1667,60,0.86593
153.2,60,0.95099
153.2333,60,0.9945
153.2667,60,0.99454
153.3,60,0.95112
153.3333,60,0.86613
153.3667,60,0.74328
153.4,60,0.58795
153.4333,60,0.40692
153.4667,60,0.20811
153.5,60,0.00020065
153.5333,60,-0.20772
153.5667,60,-0.40655
153.6,60,-0.58762
153.6333,60,-0.74301
153.6667,60,-0.86592
153.7,60,-0.95099
153.7333,60,-0.9945
153.7667,60,-0.99454
153.8,60,-0.95112
153.8333,60,-0.86613
153.8667,60,-0.74328
153.9,60,-0.58795
153.9333,60,-0.40692
153.9667,60,-0.20811
154,60,-0.00020131
154.0333,60,0.20771
154.0667,60,0.40655
154.1,60,0.58762
154.1333,60,0.74301
154.1667,60,0.86592
154.2,60,0.95099
154.2333,60,0.9945
154.2667,60,0.99454
154.3,60,0.95112
154.3333,60,0.86613
154.3667,60,0.74328
154.4,60,0.58795
154.4333,60,0.40692
154.4667,60,0.20811
154.5,60,0.00020196
154.5333,60,-0.20771
154.5667,60,-0.40655
154.6,60,-0.58762
154.6333,60,-0.74301
154.6667,60,-0.86592
154.7,60,-0.95099
154.7333,60,-0.9945
154.7667,60,-0.99454
154.8,60,-0.95112
154.8333,60,-0.86613
154.8667,60,-0.74328
154.9,60,-0.58795
154.9333,60,-0.40692
154.9667,60,-0.20811
155,60,-0.00020261
155.0333,60,0.20771
155.0667,60,0.40655
155.1,60,0.58762
155.1333,60,0.74301
155.1667,60,0.86592
155.2,60,0.95099
155.2333,60,0.9945
155.2667,60,0.99454
155.3,60,0.95112
155.3333,60,0.86613
155.3667,60,0.74328
155.4,60,0.58795
155.4333,60,0.40692
155.4667,60,0.20811
155.5,60,0.00020327
155.5333,60,-0.20771
155.5667,60,-0.40655
155.6,60,-0.58762
155.6333,60,-0.74301
155.6667,60,-0.86592
155.7,60,-0.95099
155.7333,60,-0.9945
155.7667,60,-0.99454
155.8,60,-0.95112
155.8333,60,-0.86613
155.8667,60,-0.74328
155.9,60,-0.58795
155.9333,60,-0.40692
155.9667,60,-0.20811
156,60,-0.00020392
156.0333,60,0.20771
156.0667,60,0.40655
156.1,60,0.58762
156.1333,60,0.74301
156.1667,60,0.86592
156.2,60,0.95099
156.2333,60,0.9945
156.2667,60,0.99454
156.3,60,0.95112
156.3333,60,0.86613
156.3667,60,0.74328
156.4,60,0.58795
156.4333,60,0.40692
156.4667,60,0.20811
156.5,60,0.00020457
156.5333,60,-0.20771
156.5667,60,-0.40655
156.6,60,-0.58762
156.6333,60,-0.74301
156.6667,60,-0.86592
156.7,60,-0.95099
156.7333,60,-0.9945
156.7667,60,-0.99454
156.8,60,-0.95112
156.8333,60,-0.86613
156.8667,60,-0.74328
156.9,60,-0.58795
156.9333,60,-0.40692
156.9667,60,-0.20811
157,60,-0.00020523
157.0333,60,0.20771
157.0667,60,0.40655
157.1,60,0.58762
157.1333,60,0.74301
157.1667,60,0.86592
157.2,60,0.95099
157.2333,60,0.9945
157.2667,60,0.99454
157.3,60,0.95112
157.3333,60,0.86613
157.3667,60,0.74328
157.4,60,0.58795
157.4333,60,0.40692
157.4667,60,0.20811
157.5,60,0.00020588
157.5333,60,-0.20771
157.5667,60,-0.40655
157.6,60,-0.58762
157.6333,60,-0.74301
157.6667,60,-0.86592
157.7,60,-0.95099
157.7333,60,-0.9945
157.7667,60,-0.99454
157.8,60,-0.95112
157.8333,60,-0.86613
157.8667,60,-0.74328
157.9,60,-0.58795
157.9333,60,-0.40693
157.9667,60,-0.20811
158,60,-0.00020653
158.0333,60,0.20771
158.0667,60,0.40655
158.1,60,0.58762
158.1333,60,0.74301
158.1667,60,0.86592
158.2,60,0.95099
158.2333,60,0.9945
158.2667,60,0.99454
158.3,60,0.95112
158.3333,60,0.86613
158.3667,60,0.74328
158.4,60,0.58795
158.4333,60,0.40693
158.4667,60,0.20811
158.5,60,0.00020719
158.5333,60,-0.20771
158.5667,60,-0.40655
158.6,60,-0.58762
158.6333,60,-0.74301
158.6667,60,-0.86592
158.7,60,-0.95099
158.7333,60,-0.9945
158.7667,60,-0.99454
158.8,60,-0.95112
158.8333,60,-0.86613
158.8667,60,-0.74328
158.9,60,-0.58795
158.9333,60,-0.40693
158.9667,60,-0.20811
159,60,-0.00020784
159.0333,60,0.20771
159.0667,60,0.40655
159.1,60,0.58762
159.1333,60,0.74301
159.1667,60,0.86592
159.2,60,0.95099
159.2333,60,0.9945
159.2667,60,0.99454
159.3,60,0.95112
159.3333,60,0.86613
159.3667,60,0.74328
159.4,60,0.58795
159.4333,60,0.40693
159.4667,60,0.20812
159.5,60,0.0002085
159.5333,60,-0.20771
159.5667,60,-0.40655
159.6,60,-0.58762
159.6333,60,-0.74301
159.6667,60,-0.86592
159.7,60,-0.95099
159.7333,60,-0.9945
159.7667,60,-0.99454
159.8,60,-0.95112
159.8333,60,-0.86613
159.8667,60,-0.74328
159.9,60,-0.58795
159.9333,60,-0.40693
159.9667,60,-0.20812
160,60,-0.00020915
160.0333,60,0.20771
160.0667,60,0.40655
160.1,60,0.58762
160.1333,60,0.743
160.1667,60,0.86592
160.2,60,0.95099
160.2333,60,0.9945
160.2667,60,0.99454
160.3,60,0.95112
160.3333,60,0.86613
160.3667,60,0.74329
160.4,60,0.58795
160.4333,60,0.40693
160.4667,60,0.20812
160.5,60,0.0002098
160.5333,60,-0.20771
160.5667,60,-0.40654
160.6,60,-0.58762
160.6333,60,-0.743
160.6667,60,-0.86592
160.7,60,-0.95099
160.7333,60,-0.9945
160.7667,60,-0.99454
160.8,60,-0.95112
160.8333,60,-0.86613
160.8667,60,-0.74329
160.9,60,-0.58796
160.9333,60,-0.40693
160.9667,60,-0.20812
161,60,-0.00021046
161.0333,60,0.20771
161.0667,60,0.40654
161.1,60,0.58761
161.1333,60,0.743
161.1667,60,0.86592
161.2,60,0.95099
161.2333,60,0.9945
161.2667,60,0.99454
161.3,60,0.95112
161.3333,60,0.86613
161.3667,60,0.74329
161.4,60,0.58796
161.4333,60,0.40693
161.4667,60,0.20812
161.5,60,0.00021111
161.5333,60,-0.20771
161.5667,60,-0.40654
161.6,60,-0.58761
161.6333,60,-0.743
161.6667,60,-0.86592
161.7,60,-0.95099
161.7333,60,-0.9945
161.7667,60,-0.99454
161.8,60,-0.95112
161.8333,60,-0.86613
161.8667,60,-0.74329
161.9,60,-0.58796
161.9333,60,-0.40693
161.9667,60,-0.20812
162,60,-0.00021176
162.0333,60,0.2077
162.0667,60,0.40654
162.1,60,0.58761
162.1333,60,0.743
162.1667,60,0.86592
162.2,60,0.95099
162.2333,60,0.9945
162.2667,60,0.99454
162.3,60,0.95112
162.3333,60,0.86613
162.3667,60,0.74329
162.4,60,0.58796
162.4333,60,0.40693
162.4667,60,0.20812
162.5,60,0.00021242
162.5333,60,-0.2077
162.5667,60,-0.40654
162.6,60,-0.58761
162.6333,60,-0.743
162.6667,60,-0.86592
162.7,60,-0.95099
162.7333,60,-0.9945
162.7667,60,-0.99454
162.8,60,-0.95112
162.8333,60,-0.86613
162.8667,60,-0.74329
162.9,60,-0.58796
162.9333,60,-0.40693
162.9667,60,-0.20812
163,60,-0.00021307
163.0333,60,0.2077
163.0667,60,0.40654
163.1,60,0.58761
163.1333,60,0.743
163.1667,60,0.86592
163.2,60,0.95099
163.2333,60,0.9945
163.2667,60,0.99454
163.3,60,0.95112
163.3333,60,0.86613
163.3667,60,0.74329
163.4,60,0.58796
163.4333,60,0.40693
163.4667,60,0.20812
163.5,60,0.00021372
163.5333,60,-0.2077
163.5667,60,-0.40654
163.6,60,-0.58761
163.6333,60,-0.743
163.6667,60,-0.86592
163.7,60,-0.95099
163.7333,60,-0.9945
163.7667,60,-0.99454
163.8,60,-0.95112
163.8333,60,-0.86613
163.8667,60,-0.74329
163.9,60,-0.58796
163.9333,60,-0.40693
163.9667,60,-0.20812
164,60,-0.00021438
164.0333,60,0.2077
164.0667,60,0.40654
164.1,60,0.58761
164.1333,60,0.743
164.1667,60,0.86592
164.2,60,0.95099
164.2333,60,0.9945
164.2667,60,0.99454
164.3,60,0.95112
164.3333,60,0.86613
164.3667,60,0.74329
164.4,60,0.58796
164.4333,60,0.40693
164.4667,60,0.20812
164.5,60,0.00021503
164.5333,60,-0.2077
164.5667,60,-0.40654
164.6,60,-0.58761
164.6333,60,-0.743
164.6667,60,-0.86592
164.7,60,-0.95099
164.7333,60,-0.9945
164.7667,60,-0.99454
164.8,60,-0.95112
164.8333,60,-0.86613
164.8667,60,-0.74329
164.9,60,-0.58796
164.9333,60,-0.40693
164.9667,60,-0.20812
165,60,-0.00021568
165.0333,60,0.2077
165.0667,60,0.40654
165.1,60,0.58761
165.1333,60,0.743
165.1667,60,0.86592
165.2,60,0.95099
165.2333,60,0.9945
165.2667,60,0.99454
165.3,60,0.95112
165.3333,60,0.86613
165.3667,60,0.74329
165.4,60,0.58796
165.4333,60,0.40693
165.4667,60,0.20812
165.5,60,0.00021634
165.5333,60,-0.2077
165.5667,60,-0.40654
165.6,60,-0.58761
165.6333,60,-0.743
165.6667,60,-0.86592
165.7,60,-0.95099
165.7333,60,-0.9945
165.7667,60,-0.99454
165.8,60,-0.95112
165.8333,60,-0.86613
165.8667,60,-0.74329
165.9,60,-0.58796
165.9333,60,-0.40693
165.9667,60,-0.20812
166,60,-0.00021699
166.0333,60,0.2077
166.0667,60,0.40654
166.1,60,0.58761
166.1333,60,0.743
166.1667,60,0.86592
166.2,60,0.95099
166.2333,60,0.9945
166.2667,60,0.99454
166.3,60,0.95112
166.3333,60,0.86613
166.3667,60,0.74329
166.4,60,0.58796
166.4333,60,0.40694
166.4667,60,0.20812
166.5,60,0.00021765
166.5333,60,-0.2077
166.5667,60,-0.40654
166.6,60,-0.58761
166.6333,60,-0.743
166.6667,60,-0.86592
166.7,60,-0.95099
166.7333,60,-0.9945
166.7667,60,-0.99454
166.8,60,-0.95112
166.8333,60,-0.86613
166.8667,60,-0.74329
166.9,60,-0.58796
166.9333,60,-0.40694
166.9667,60,-0.20813
167,60,-0.0002183
167.0333,60,0.2077
167.0667,60,0.40654
167.1,60,0.58761
167.1333,60,0.743
167.1667,60,0.86592
167.2,60,0.95099
167.2333,60,0.9945
167.2667,60,0.99454
167.3,60,0.95112
167.3333,60,0.86613
167.3667,60,0.74329
167.4,60,0.58796
167.4333,60,0.40694
167.4667,60,0.20813
167.5,60,0.00021895
167.5333,60,-0.2077
167.5667,60,-0.40654
167.6,60,-0.58761
167.6333,60,-0.743
167.6667,60,-0.86592
167.7,60,-0.95099
167.7333,60,-0.9945
167.7667,60,-0.99454
167.8,60,-0.95112
167.8333,60,-0.86614
167.8667,60,-0.74329
167.9,60,-0.58796
167.9333,60,-0.40694
167.9667,60,-0.20813
168,60,-0.00021961
168.0333,60,0.2077
168.0667,60,0.40654
168.1,60,0.58761
168.1333,60,0.743
168.1667,60,0.86592
168.2,60,0.95099
168.2333,60,0.9945
168.2667,60,0.99454
168.3,60,0.95112
168.3333,60,0.86614
168.3667,60,0.74329
168.4,60,0.58796
168.4333,60,0.40694
168.4667,60,0.20813
168.5,60,0.00022026
168.5333,60,-0.2077
168.5667,60,-0.40654
168.6,60,-0.58761
168.6333,60,-0.743
168.6667,60,-0.86592
168.7,60,-0.95099
168.7333,60,-0.9945
168.7667,60,-0.99454
168.8,60,-0.95112
168.8333,60,-0.86614
168.8667,60,-0.74329
168.9,60,-0.58796
168.9333,60,-0.40694
168.9667,60,-0.20813
169,60,-0.00022091
169.0333,60,0.2077
169.0667,60,0.40653
169.1,60,0.58761
169.1333,60,0.743
169.1667,60,0.86591
169.2,60,0.95099
169.2333,60,0.9945
169.2667,60,0.99454
169.3,60,0.95112
169.3333,60,0.86614
169.3667,60,0.74329
169.4,60,0.58796
169.4333,60,0.40694
169.4667,60,0.20813
169.5,60,0.00022157
169.5333,60,-0.20769
169.5667,60,-0.40653
169.6,60,-0.58761
169.6333,60,-0.743
169.6667,60,-0.86591
169.7,60,-0.95099
169.7333,60,-0.9945
169.7667,60,-0.99455
169.8,60,-0.95113
169.8333,60,-0.86614
169.8667,60,-0.74329
169.9,60,-0.58796
169.9333,60,-0.40694
169.9667,60,-0.20813
170,60,-0.00022222
170.0333,60,0.20769
170.0667,60,0.40653
170.1,60,0.58761
170.1333,60,0.743
170.1667,60,0.86591
170.2,60,0.95099
170.2333,60,0.9945
170.2667,60,0.99455
170.3,60,0.95113
170.3333,60,0.86614
170.3667,60,0.74329
170.4,60,0.58797
170.4333,60,0.40694
170.4667,60,0.20813
170.5,60,0.00022287
170.5333,60,-0.20769
170.5667,60,-0.40653
170.6,60,-0.5876
170.6333,60,-0.743
170.6667,60,-0.86591
170.7,60,-0.95099
170.7333,60,-0.9945
170.7667,60,-0.99455
170.8,60,-0.95113
170.8333,60,-0.86614
170.8667,60,-0.74329
170.9,60,-0.58797
170.9333,60,-0.40694
170.9667,60,-0.20813
171,60,-0.00022353
171.0333,60,0.20769
171.0667,60,0.40653
171.1,60,0.5876
171.1333,60,0.743
171.1667,60,0.86591
171.2,60,0.95099
171.2333,60,0.9945
171.2667,60,0.99455
171.3,60,0.95113
171.3333,60,0.86614
171.3667,60,0.74329
171.4,60,0.58797
171.4333,60,0.40694
171.4667,60,0.20813
171.5,60,0.00022418
171.5333,60,-0.20769
171.5667,60,-0.40653
171.6,60,-0.5876
171.6333,60,-0.74299
171.6667,60,-0.86591
171.7,60,-0.95099
171.7333,60,-0.9945
171.7667,60,-0.99455
171.8,60,-0.95113
171.8333,60,-0.86614
171.8667,60,-0.7433
171.9,60,-0.58797
171.9333,60,-0.40694
171.9667,60,-0.20813
172,60,-0.00022483
172.0333,60,0.20769
172.0667,60,0.40653
172.1,60,0.5876
172.1333,60,0.74299
172.1667,60,0.86591
172.2,60,0.95099
172.2333,60,0.9945
172.2667,60,0.99455
172.3,60,0.95113
172.3333,60,0.86614
172.3667,60,0.7433
172.4,60,0.58797
172.4333,60,0.40694
172.4667,60,0.20813
172.5,60,0.00022549
172.5333,60,-0.20769
172.5667,60,-0.40653
172.6,60,-0.5876
172.6333,60,-0.74299
172.6667,60,-0.86591
172.7,60,-0.95099
172.7333,60,-0.9945
172.7667,60,-0.99455
172.8,60,-0.95113
172.8333,60,-0.86614
172.8667,60,-0.7433
172.9,60,-0.58797
172.9333,60,-0.40694
172.9667,60,-0.20813
173,60,-0.00022614
173.0333,60,0.20769
173.0667,60,0.40653
173.1,60,0.5876
173.1333,60,0.74299
173.1667,60,0.86591
173.2,60,0.95099
173.2333,60,0.9945
173.2667,60,0.99455
173.3,60,0.95113
173.3333,60,0.86614
173.3667,60,0.7433
173.4,60,0.58797
173.4333,60,0.40694
173.4667,60,0.20813
173.5,60,0.0002268
173.5333,60,-0.20769
173.5667,60,-0.40653
173.6,60,-0.5876
173.6333,60,-0.74299
173.6667,60,-0.86591
173.7,60,-0.95099
173.7333,60,-0.9945
173.7667,60,-0.99455
173.8,60,-0.95113
173.8333,60,-0.86614
173.8667,60,-0.7433
173.9,60,-0.58797
173.9333,60,-0.40694
173.9667,60,-0.20813
174,60,-0.00022745
174.0333,60,0.20769
174.0667,60,0.40653
174.1,60,0.5876
174.1333,60,0.74299
174.1667,60,0.86591
174.2,60,0.95099
174.2333,60,0.9945
174.2667,60,0.99455
174.3,60,0.95113
174.3333,60,0.86614
174.3667,60,0.7433
174.4,60,0.58797
174.4333,60,0.40694
174.4667,60,0.20813
174.5,60,0.0002281
174.5333,60,-0.20769
174.5667,60,-0.40653
174.6,60,-0.5876
174.6333,60,-0.74299
174.6667,60,-0.86591
174.7,60,-0.95099
174.7333,60,-0.9945
174.7667,60,-0.99455
174.8,60,-0.95113
174.8333,60,-0.86614
174.8667,60,-0.7433
174.9,60,-0.58797
174.9333,60,-0.40695
174.9667,60,-0.20814
175,60,-0.00022876
175.0333,60,0.20769
175.0667,60,0.40653
175.1,60,0.5876
175.1333,60,0.74299
175.1667,60,0.86591
175.2,60,0.95099
175.2333,60,0.9945
175.2667,60,0.99455
175.3,60,0.95113
175.3333,60,0.86614
175.3667,60,0.7433
175.4,60,0.58797
175.4333,60,0.40695
175.4667,60,0.20814
175.5,60,0.00022941
175.5333,60,-0.20769
175.5667,60,-0.40653
175.6,60,-0.5876
175.6333,60,-0.74299
175.6667,60,-0.86591
175.7,60,-0.95099
175.7333,60,-0.9945
175.7667,60,-0.99455
175.8,60,-0.95113
175.8333,60,-0.86614
175.8667,60,-0.7433
175.9,60,-0.58797
175.9333,60,-0.40695
175.9667,60,-0.20814
176,60,-0.00023006
176.0333,60,0.20769
176.0667,60,0.40653
176.1,60,0.5876
176.1333,60,0.74299
176.1667,60,0.86591
176.2,60,0.95099
176.2333,60,0.9945
176.2667,60,0.99455
176.3,60,0.95113
176.3333,60,0.86614
176.3667,60,0.7433
176.4,60,0.58797
176.4333,60,0.40695
176.4667,60,0.20814
176.5,60,0.00023072
176.5333,60,-0.20769
176.5667,60,-0.40653
176.6,60,-0.5876
176.6333,60,-0.74299
176.6667,60,-0.86591
176.7,60,-0.95099
176.7333,60,-0.9945
176.7667,60,-0.99455
176.8,60,-0.95113
176.8333,60,-0.86614
176.8667,60,-0.7433
176.9,60,-0.58797
176.9333,60,-0.40695
176.9667,60,-0.20814
177,60,-0.00023137
177.0333,60,0.20769
177.0667,60,0.40653
177.1,60,0.5876
177.1333,60,0.74299
177.1667,60,0.86591
177.2,60,0.95098
177.2333,60,0.9945
177.2667,60,0.99455
177.3,60,0.95113
177.3333,60,0.86614
177.3667,60,0.7433
177.4,60,0.58797
177.4333,60,0.40695
177.4667,60,0.20814
177.5,60,0.00023202
177.5333,60,-0.20768
177.5667,60,-0.40652
177.6,60,-0.5876
177.6333,60,-0.74299
177.6667,60,-0.86591
177.7,60,-0.95098
177.7333,60,-0.9945
177.7667,60,-0.99455
177.8,60,-0.95113
177.8333,60,-0.86614
177.8667,60,-0.7433
177.9,60,-0.58797
177.9333,60,-0.40695
177.9667,60,-0.20814
178,60,-0.00023268
178.0333,60,0.20768
178.0667,60,0.40652
178.1,60,0.5876
178.1333,60,0.74299
178.1667,60,0.86591
178.2,60,0.95098
178.2333,60,0.9945
178.2667,60,0.99455
178.3,60,0.95113
178.3333,60,0.86614
178.3667,60,0.7433
178.4,60,0.58797
178.4333,60,0.40695
178.4667,60,0.20814
178.5,60,0.00023333
178.5333,60,-0.20768
178.5667,60,-0.40652
178.6,60,-0.5876
178.6333,60,-0.74299
178.6667,60,-0.86591
178.7,60,-0.95098
178.7333,60,-0.9945
178.7667,60,-0.99455
178.8,60,-0.95113
178.8333,60,-0.86614
178.8667,60,-0.7433
178.9,60,-0.58797
178.9333,60,-0.40695
178.9667,60,-0.20814
179,60,-0.00023399
179.0333,60,0.20768
179.0667,60,0.40652
179.1,60,0.5876
179.1333,60,0.74299
179.1667,60,0.86591
179.2,60,0.95098
179.2333,60,0.9945
179.2667,60,0.99455
179.3,60,0.95113
179.3333,60,0.86614
179.3667,60,0.7433
179.4,60,0.58797
179.4333,60,0.40695
179.4667,60,0.20814
179.5,60,0.00023464
179.5333,60,-0.20768
179.5667,60,-0.40652
179.6,60,-0.5876
179.6333,60,-0.74299
179.6667,60,-0.86591
179.7,60,-0.95098
179.7333,60,-0.9945
179.7667,60,-0.99455
179.8,60,-0.95113
179.8333,60,-0.86614
179.8667,60,-0.7433
179.9,60,-0.58798
179.9333,60,-0.40695
179.9667,60,-0.20814
180,60,-0.00023529
